* Measurement data measured by REW V5.20 Beta 4
* Source: Microphone (E.A.R.S Gain: 18dB  ), no input selected, L, volume: no control
* Format: 256k Log Swept Sine, 1 sweep at -7.0 dBFS  With no timing reference
* Dated: Jan 28, 2019 11:09:02 AM
* REW Settings:
*  C-weighting compensation: Off
*  Target level: 75.0 dB
* Note: ; 
* Measurement: Audio-Technica M50x L
* Smoothing: 1/48 octave
* Frequency Step: 1/96 octave
* Start Frequency: 20.1 Hz
*
* Freq(Hz) SPL(dB) Phase(degrees)
20.145 98.622 116.712
20.291 98.677 116.522
20.438 98.732 116.211
20.586 98.813 115.729
20.735 98.941 115.057
20.885 99.068 114.391
21.037 99.180 113.805
21.189 99.287 113.250
21.343 99.390 112.725
21.497 99.489 112.231
21.653 99.588 111.735
21.810 99.689 111.232
21.968 99.790 110.730
22.127 99.890 110.234
22.288 99.989 109.740
22.449 100.088 109.247
22.612 100.186 108.756
22.776 100.284 108.260
22.941 100.381 107.759
23.107 100.476 107.255
23.274 100.571 106.747
23.443 100.664 106.235
23.613 100.756 105.719
23.784 100.846 105.201
23.956 100.934 104.680
24.130 101.021 104.158
24.305 101.105 103.637
24.481 101.188 103.116
24.658 101.269 102.600
24.837 101.348 102.086
25.017 101.427 101.577
25.198 101.504 101.073
25.381 101.580 100.574
25.565 101.655 100.081
25.750 101.729 99.592
25.937 101.804 99.108
26.125 101.878 98.627
26.314 101.952 98.148
26.505 102.027 97.669
26.697 102.101 97.190
26.890 102.176 96.709
27.085 102.250 96.225
27.281 102.325 95.737
27.479 102.400 95.243
27.678 102.474 94.744
27.879 102.548 94.239
28.081 102.622 93.728
28.284 102.696 93.210
28.489 102.768 92.685
28.696 102.841 92.154
28.904 102.912 91.616
29.113 102.983 91.072
29.324 103.053 90.522
29.537 103.122 89.965
29.751 103.190 89.402
29.966 103.257 88.832
30.183 103.324 88.254
30.402 103.389 87.670
30.622 103.453 87.078
30.844 103.515 86.478
31.068 103.576 85.872
31.293 103.635 85.259
31.520 103.691 84.642
31.748 103.746 84.020
31.978 103.798 83.397
32.210 103.847 82.773
32.443 103.894 82.153
32.678 103.939 81.539
32.915 103.980 80.934
33.154 104.020 80.340
33.394 104.058 79.762
33.636 104.095 79.201
33.880 104.131 78.658
34.125 104.167 78.134
34.372 104.204 77.628
34.621 104.244 77.137
34.872 104.285 76.657
35.125 104.329 76.184
35.380 104.377 75.710
35.636 104.428 75.227
35.894 104.482 74.730
36.154 104.538 74.211
36.416 104.595 73.664
36.680 104.652 73.088
36.946 104.709 72.480
37.214 104.763 71.841
37.483 104.813 71.176
37.755 104.859 70.491
38.029 104.900 69.791
38.304 104.935 69.086
38.582 104.965 68.385
38.861 104.990 67.695
39.143 105.010 67.022
39.427 105.028 66.373
39.712 105.043 65.749
40.000 105.057 65.150
40.290 105.071 64.577
40.582 105.086 64.024
40.876 105.103 63.485
41.172 105.123 62.953
41.470 105.145 62.421
41.771 105.169 61.881
42.074 105.196 61.326
42.379 105.223 60.750
42.686 105.251 60.147
42.995 105.277 59.516
43.306 105.301 58.855
43.620 105.322 58.165
43.936 105.338 57.449
44.255 105.348 56.711
44.575 105.352 55.957
44.898 105.348 55.191
45.224 105.336 54.422
45.552 105.315 53.654
45.882 105.286 52.897
46.214 105.247 52.155
46.549 105.198 51.439
46.886 105.140 50.755
47.226 105.071 50.116
47.568 104.993 49.535
47.913 104.904 49.027
48.260 104.806 48.610
48.610 104.701 48.302
48.962 104.592 48.121
49.317 104.483 48.077
49.674 104.378 48.177
50.034 104.284 48.412
50.397 104.203 48.767
50.762 104.142 49.211
51.130 104.102 49.709
51.500 104.083 50.222
51.874 104.084 50.713
52.249 104.101 51.156
52.628 104.129 51.535
53.009 104.163 51.850
53.394 104.199 52.112
53.781 104.235 52.341
54.170 104.271 52.561
54.563 104.307 52.792
54.958 104.346 53.049
55.356 104.392 53.335
55.758 104.447 53.644
56.162 104.514 53.959
56.569 104.595 54.257
56.978 104.689 54.515
57.391 104.795 54.712
57.807 104.910 54.833
58.226 105.030 54.872
58.648 105.155 54.826
59.073 105.280 54.701
59.501 105.405 54.501
59.932 105.529 54.234
60.367 105.650 53.907
60.804 105.768 53.528
61.245 105.882 53.102
61.688 105.993 52.634
62.135 106.100 52.129
62.586 106.204 51.590
63.039 106.304 51.021
63.496 106.400 50.424
63.956 106.493 49.799
64.420 106.582 49.150
64.886 106.668 48.475
65.357 106.750 47.775
65.830 106.829 47.051
66.307 106.903 46.302
66.788 106.973 45.529
67.272 107.038 44.731
67.759 107.098 43.908
68.250 107.153 43.059
68.745 107.202 42.184
69.243 107.243 41.283
69.745 107.275 40.359
70.250 107.298 39.415
70.759 107.308 38.460
71.272 107.306 37.504
71.788 107.289 36.564
72.309 107.256 35.660
72.833 107.208 34.819
73.360 107.145 34.069
73.892 107.069 33.441
74.427 106.985 32.965
74.967 106.899 32.662
75.510 106.819 32.537
76.057 106.753 32.577
76.608 106.708 32.748
77.163 106.690 33.001
77.723 106.701 33.274
78.286 106.738 33.512
78.853 106.798 33.666
79.424 106.873 33.709
80.000 106.958 33.626
80.580 107.047 33.422
81.164 107.133 33.108
81.752 107.216 32.705
82.344 107.292 32.231
82.941 107.362 31.706
83.542 107.425 31.143
84.147 107.481 30.553
84.757 107.531 29.943
85.371 107.576 29.321
85.990 107.617 28.689
86.613 107.652 28.051
87.241 107.684 27.411
87.873 107.712 26.769
88.510 107.737 26.127
89.151 107.759 25.485
89.797 107.779 24.843
90.448 107.795 24.204
91.103 107.810 23.566
91.763 107.821 22.932
92.428 107.831 22.300
93.098 107.839 21.672
93.773 107.844 21.049
94.452 107.848 20.431
95.137 107.850 19.818
95.826 107.850 19.209
96.520 107.849 18.602
97.220 107.847 17.995
97.924 107.843 17.388
98.634 107.837 16.781
99.349 107.829 16.179
100.069 107.818 15.583
100.794 107.807 14.991
101.524 107.796 14.398
102.260 107.784 13.796
103.001 107.770 13.177
103.747 107.754 12.533
104.499 107.733 11.853
105.256 107.704 11.130
106.019 107.658 10.375
106.787 107.589 9.635
107.561 107.494 9.007
108.340 107.380 8.612
109.126 107.270 8.519
109.916 107.191 8.683
110.713 107.162 8.930
111.515 107.179 9.059
112.323 107.217 8.949
113.137 107.254 8.608
113.957 107.274 8.117
114.783 107.276 7.565
115.614 107.261 7.009
116.452 107.235 6.472
117.296 107.200 5.965
118.146 107.156 5.496
119.002 107.106 5.077
119.865 107.050 4.720
120.733 106.992 4.439
121.608 106.934 4.240
122.489 106.882 4.119
123.377 106.839 4.059
124.271 106.808 4.034
125.171 106.788 4.014
126.078 106.779 3.974
126.992 106.777 3.904
127.912 106.780 3.801
128.839 106.788 3.664
129.773 106.800 3.486
130.713 106.814 3.258
131.660 106.828 2.977
132.615 106.839 2.653
133.575 106.846 2.302
134.543 106.850 1.937
135.518 106.851 1.562
136.500 106.849 1.178
137.490 106.845 0.788
138.486 106.839 0.398
139.489 106.831 0.007
140.500 106.823 -0.389
141.518 106.812 -0.790
142.544 106.799 -1.195
143.577 106.784 -1.603
144.617 106.767 -2.014
145.665 106.746 -2.423
146.721 106.724 -2.824
147.784 106.700 -3.222
148.855 106.675 -3.626
149.933 106.647 -4.034
151.020 106.616 -4.439
152.114 106.583 -4.840
153.217 106.547 -5.245
154.327 106.506 -5.647
155.445 106.460 -6.027
156.572 106.412 -6.373
157.706 106.362 -6.694
158.849 106.310 -6.990
160.000 106.254 -7.241
161.159 106.199 -7.425
162.327 106.151 -7.551
163.504 106.111 -7.654
164.688 106.078 -7.758
165.882 106.049 -7.865
167.084 106.025 -7.962
168.295 106.007 -8.054
169.514 105.998 -8.173
170.742 105.994 -8.355
171.980 105.987 -8.603
173.226 105.973 -8.881
174.481 105.953 -9.151
175.746 105.932 -9.401
177.019 105.912 -9.641
178.302 105.894 -9.889
179.594 105.877 -10.154
180.895 105.861 -10.439
182.206 105.845 -10.749
183.527 105.827 -11.084
184.856 105.805 -11.434
186.196 105.779 -11.778
187.545 105.752 -12.104
188.904 105.727 -12.423
190.273 105.703 -12.757
191.652 105.678 -13.118
193.041 105.647 -13.492
194.440 105.610 -13.843
195.849 105.575 -14.156
197.268 105.545 -14.469
198.697 105.519 -14.829
200.137 105.489 -15.248
201.587 105.450 -15.692
203.048 105.401 -16.109
204.520 105.349 -16.471
206.002 105.302 -16.798
207.494 105.258 -17.125
208.998 105.215 -17.459
210.512 105.173 -17.801
212.038 105.130 -18.154
213.574 105.083 -18.515
215.122 105.032 -18.863
216.681 104.978 -19.180
218.251 104.927 -19.478
219.833 104.880 -19.795
221.426 104.832 -20.156
223.030 104.779 -20.551
224.646 104.719 -20.961
226.274 104.654 -21.370
227.914 104.585 -21.779
229.565 104.512 -22.190
231.229 104.435 -22.588
232.905 104.355 -22.963
234.592 104.276 -23.332
236.292 104.195 -23.708
238.004 104.110 -24.078
239.729 104.021 -24.424
241.466 103.929 -24.740
243.216 103.835 -25.022
244.979 103.738 -25.252
246.754 103.644 -25.423
248.542 103.557 -25.574
250.343 103.471 -25.748
252.157 103.381 -25.944
253.984 103.285 -26.138
255.825 103.183 -26.322
257.678 103.077 -26.482
259.546 102.969 -26.617
261.426 102.862 -26.751
263.321 102.753 -26.892
265.229 102.641 -27.038
267.151 102.527 -27.193
269.087 102.407 -27.345
271.037 102.282 -27.467
273.001 102.155 -27.539
274.979 102.030 -27.562
276.972 101.907 -27.547
278.979 101.786 -27.499
281.000 101.666 -27.408
283.037 101.548 -27.277
285.088 101.431 -27.116
287.153 101.315 -26.921
289.234 101.200 -26.680
291.330 101.087 -26.396
293.441 100.980 -26.083
295.568 100.877 -25.759
297.710 100.779 -25.446
299.867 100.683 -25.165
302.040 100.583 -24.905
304.228 100.478 -24.622
306.433 100.375 -24.289
308.654 100.282 -23.927
310.890 100.201 -23.593
313.143 100.128 -23.332
315.412 100.055 -23.135
317.698 99.983 -22.969
320.000 99.917 -22.846
322.319 99.855 -22.813
324.655 99.788 -22.891
327.007 99.709 -23.050
329.377 99.614 -23.268
331.764 99.499 -23.534
334.168 99.357 -23.820
336.589 99.183 -24.082
339.028 98.973 -24.250
341.485 98.731 -24.223
343.959 98.470 -23.929
346.452 98.207 -23.384
348.962 97.949 -22.645
351.491 97.696 -21.733
354.038 97.448 -20.639
356.604 97.213 -19.359
359.188 96.998 -17.927
361.791 96.805 -16.390
364.412 96.634 -14.781
367.053 96.485 -13.122
369.713 96.357 -11.424
372.392 96.252 -9.704
375.090 96.168 -8.003
377.809 96.096 -6.352
380.546 96.026 -4.706
383.304 95.962 -3.004
386.081 95.908 -1.233
388.879 95.867 0.597
391.697 95.840 2.491
394.536 95.827 4.486
397.395 95.840 6.587
400.274 95.888 8.717
403.175 95.970 10.815
406.096 96.089 12.839
409.039 96.245 14.689
412.003 96.424 16.300
414.989 96.615 17.689
417.996 96.810 18.870
421.025 97.001 19.859
424.076 97.183 20.679
427.149 97.352 21.366
430.244 97.509 21.966
433.362 97.656 22.511
436.502 97.797 23.011
439.665 97.931 23.463
442.851 98.059 23.875
446.060 98.180 24.267
449.293 98.297 24.656
452.548 98.413 25.040
455.828 98.528 25.406
459.131 98.639 25.763
462.458 98.748 26.123
465.809 98.858 26.474
469.184 98.966 26.790
472.584 99.068 27.072
476.009 99.164 27.355
479.458 99.261 27.640
482.933 99.359 27.904
486.432 99.456 28.155
489.957 99.556 28.406
493.507 99.660 28.641
497.084 99.768 28.834
500.686 99.875 28.961
504.314 99.978 29.024
507.968 100.073 29.053
511.649 100.164 29.064
515.357 100.250 29.063
519.091 100.331 29.055
522.853 100.410 29.042
526.642 100.486 29.019
530.458 100.559 28.986
534.302 100.629 28.955
538.174 100.698 28.920
542.074 100.766 28.872
546.002 100.830 28.815
549.958 100.892 28.743
553.943 100.950 28.652
557.958 101.002 28.566
562.001 101.050 28.501
566.073 101.098 28.454
570.175 101.145 28.408
574.307 101.191 28.353
578.469 101.237 28.290
582.660 101.282 28.217
586.883 101.326 28.135
591.135 101.368 28.044
595.419 101.405 27.964
599.734 101.440 27.904
604.080 101.474 27.854
608.457 101.508 27.798
612.866 101.540 27.732
617.307 101.568 27.656
621.780 101.593 27.590
626.286 101.617 27.542
630.824 101.640 27.505
635.396 101.664 27.471
640.000 101.689 27.435
644.638 101.712 27.402
649.309 101.734 27.375
654.014 101.755 27.355
658.753 101.775 27.335
663.527 101.793 27.321
668.335 101.811 27.318
673.178 101.831 27.328
678.056 101.852 27.342
682.970 101.875 27.345
687.919 101.896 27.343
692.904 101.917 27.346
697.925 101.940 27.353
702.982 101.962 27.358
708.076 101.985 27.366
713.208 102.009 27.364
718.376 102.031 27.354
723.581 102.051 27.348
728.825 102.072 27.336
734.106 102.094 27.295
739.426 102.113 27.229
744.784 102.130 27.156
750.181 102.147 27.075
755.617 102.162 26.968
761.093 102.173 26.829
766.608 102.177 26.685
772.163 102.175 26.563
777.758 102.170 26.470
783.394 102.164 26.407
789.071 102.159 26.361
794.789 102.154 26.319
800.548 102.148 26.272
806.349 102.139 26.226
812.193 102.127 26.202
818.078 102.115 26.204
824.006 102.105 26.216
829.977 102.096 26.226
835.992 102.085 26.231
842.050 102.072 26.239
848.151 102.057 26.264
854.297 102.041 26.301
860.488 102.023 26.337
866.724 102.002 26.380
873.004 101.983 26.427
879.330 101.962 26.467
885.702 101.939 26.507
892.120 101.914 26.547
898.585 101.886 26.593
905.097 101.854 26.663
911.655 101.820 26.765
918.262 101.786 26.897
924.916 101.754 27.044
931.618 101.720 27.200
938.369 101.686 27.367
945.169 101.650 27.544
952.018 101.611 27.742
958.917 101.569 27.973
965.865 101.526 28.237
972.864 101.483 28.534
979.914 101.439 28.861
987.015 101.396 29.214
994.167 101.354 29.604
1,001.371 101.313 30.041
1,008.628 101.275 30.516
1,015.937 101.241 31.010
1,023.299 101.208 31.529
1,030.714 101.179 32.088
1,038.183 101.155 32.688
1,045.706 101.138 33.320
1,053.283 101.129 33.962
1,060.916 101.127 34.598
1,068.604 101.130 35.236
1,076.347 101.137 35.895
1,084.147 101.151 36.577
1,092.003 101.175 37.263
1,099.916 101.209 37.936
1,107.887 101.253 38.581
1,115.915 101.305 39.186
1,124.001 101.366 39.735
1,132.146 101.431 40.224
1,140.350 101.498 40.643
1,148.614 101.564 40.995
1,156.937 101.629 41.297
1,165.321 101.692 41.547
1,173.765 101.751 41.741
1,182.271 101.803 41.892
1,190.838 101.848 42.028
1,199.467 101.888 42.155
1,208.159 101.924 42.257
1,216.914 101.954 42.342
1,225.732 101.978 42.428
1,234.614 101.998 42.519
1,243.561 102.014 42.617
1,252.572 102.028 42.725
1,261.649 102.041 42.828
1,270.791 102.047 42.916
1,280.000 102.045 42.999
1,289.275 102.036 43.092
1,298.618 102.024 43.204
1,308.028 102.010 43.331
1,317.507 101.991 43.485
1,327.054 101.966 43.668
1,336.670 101.935 43.867
1,346.357 101.897 44.096
1,356.113 101.855 44.379
1,365.940 101.811 44.722
1,375.838 101.768 45.133
1,385.808 101.726 45.597
1,395.850 101.684 46.087
1,405.965 101.644 46.597
1,416.153 101.607 47.116
1,426.415 101.568 47.650
1,436.751 101.523 48.208
1,447.163 101.467 48.793
1,457.649 101.397 49.474
1,468.212 101.324 50.344
1,478.851 101.265 51.386
1,489.568 101.229 52.503
1,500.362 101.207 53.621
1,511.234 101.195 54.750
1,522.185 101.192 55.902
1,533.215 101.196 57.072
1,544.326 101.207 58.262
1,555.517 101.226 59.482
1,566.789 101.252 60.733
1,578.142 101.287 62.017
1,589.578 101.331 63.340
1,601.097 101.383 64.698
1,612.699 101.447 66.104
1,624.385 101.528 67.557
1,636.156 101.629 69.025
1,648.012 101.750 70.478
1,659.955 101.889 71.900
1,671.983 102.046 73.265
1,684.099 102.217 74.552
1,696.303 102.402 75.755
1,708.595 102.601 76.856
1,720.976 102.810 77.824
1,733.447 103.018 78.640
1,746.008 103.214 79.363
1,758.661 103.400 80.120
1,771.405 103.600 80.929
1,784.241 103.819 81.662
1,797.170 104.046 82.245
1,810.193 104.273 82.692
1,823.311 104.493 83.037
1,836.523 104.706 83.307
1,849.831 104.911 83.521
1,863.236 105.112 83.678
1,876.738 105.305 83.783
1,890.338 105.491 83.858
1,904.036 105.670 83.915
1,917.833 105.841 83.954
1,931.730 106.004 83.977
1,945.729 106.159 84.009
1,959.828 106.310 84.060
1,974.030 106.455 84.135
1,988.334 106.597 84.262
2,002.743 106.745 84.432
2,017.255 106.897 84.612
2,031.873 107.053 84.805
2,046.597 107.215 84.997
2,061.428 107.385 85.159
2,076.365 107.560 85.280
2,091.412 107.737 85.362
2,106.567 107.914 85.400
2,121.832 108.088 85.412
2,137.208 108.262 85.417
2,152.695 108.439 85.414
2,168.294 108.621 85.379
2,184.007 108.804 85.271
2,199.833 108.982 85.109
2,215.774 109.150 84.954
2,231.830 109.321 84.867
2,248.003 109.508 84.778
2,264.293 109.703 84.582
2,280.701 109.894 84.281
2,297.228 110.079 83.919
2,313.874 110.259 83.522
2,330.642 110.434 83.089
2,347.530 110.602 82.633
2,364.542 110.766 82.169
2,381.676 110.927 81.699
2,398.935 111.088 81.230
2,416.318 111.252 80.742
2,433.828 111.419 80.197
2,451.464 111.583 79.576
2,469.229 111.737 78.896
2,487.122 111.882 78.194
2,505.145 112.020 77.479
2,523.298 112.154 76.745
2,541.583 112.283 75.986
2,560.000 112.405 75.191
2,578.551 112.513 74.366
2,597.236 112.605 73.562
2,616.057 112.685 72.840
2,635.014 112.764 72.212
2,654.108 112.850 71.647
2,673.341 112.949 71.092
2,692.713 113.055 70.482
2,712.226 113.160 69.793
2,731.879 113.257 69.028
2,751.676 113.339 68.218
2,771.615 113.402 67.428
2,791.700 113.454 66.744
2,811.930 113.506 66.212
2,832.306 113.577 65.781
2,852.830 113.675 65.307
2,873.503 113.788 64.651
2,894.325 113.891 63.775
2,915.299 113.964 62.770
2,936.424 114.001 61.781
2,957.703 114.011 60.919
2,979.136 114.012 60.221
3,000.724 114.014 59.650
3,022.468 114.023 59.147
3,044.370 114.035 58.675
3,066.431 114.048 58.225
3,088.652 114.058 57.806
3,111.033 114.064 57.438
3,133.577 114.070 57.133
3,156.284 114.077 56.899
3,179.156 114.088 56.739
3,202.193 114.107 56.639
3,225.398 114.131 56.577
3,248.771 114.161 56.544
3,272.312 114.194 56.545
3,296.025 114.230 56.578
3,319.909 114.269 56.659
3,343.967 114.314 56.812
3,368.198 114.369 57.038
3,392.606 114.439 57.316
3,417.190 114.524 57.626
3,441.952 114.621 57.968
3,466.894 114.733 58.342
3,492.017 114.865 58.743
3,517.321 115.021 59.156
3,542.809 115.201 59.543
3,568.482 115.404 59.863
3,594.341 115.629 60.087
3,620.387 115.870 60.188
3,646.622 116.122 60.154
3,673.046 116.384 59.987
3,699.663 116.652 59.702
3,726.472 116.926 59.321
3,753.476 117.208 58.841
3,780.675 117.497 58.239
3,808.071 117.793 57.511
3,835.666 118.095 56.649
3,863.461 118.400 55.644
3,891.457 118.708 54.493
3,919.656 119.017 53.189
3,948.060 119.325 51.711
3,976.669 119.625 50.039
4,005.486 119.911 48.188
4,034.511 120.182 46.178
4,063.747 120.435 44.027
4,093.194 120.664 41.773
4,122.855 120.858 39.459
4,152.731 121.018 37.119
4,182.824 121.157 34.725
4,213.134 121.281 32.183
4,243.664 121.390 29.499
4,274.416 121.484 26.765
4,305.390 121.566 24.039
4,336.588 121.630 21.318
4,368.013 121.678 18.591
4,399.666 121.715 15.884
4,431.547 121.751 13.231
4,463.660 121.795 10.610
4,496.005 121.852 7.950
4,528.585 121.919 5.105
4,561.401 121.991 1.881
4,594.455 122.058 -1.901
4,627.749 122.112 -6.376
4,661.283 122.141 -11.594
4,695.061 122.138 -17.444
4,729.083 122.103 -23.728
4,763.352 122.023 -30.141
4,797.869 121.891 -36.324
4,832.637 121.700 -41.960
4,867.656 121.431 -46.809
4,902.929 121.054 -50.771
4,938.458 120.573 -53.953
4,974.244 120.024 -56.680
5,010.289 119.446 -59.234
5,046.596 118.878 -61.703
5,083.166 118.341 -64.109
5,120.000 117.826 -66.578
5,157.102 117.317 -69.213
5,194.472 116.794 -72.084
5,232.113 116.235 -75.192
5,270.027 115.621 -78.511
5,308.216 114.934 -82.032
5,346.682 114.147 -85.572
5,385.426 113.245 -88.904
5,424.451 112.225 -91.874
5,463.759 111.092 -94.335
5,503.352 109.852 -96.175
5,543.231 108.505 -97.266
5,583.399 107.045 -97.433
5,623.859 105.468 -96.432
5,664.612 103.769 -93.832
5,705.660 101.949 -88.997
5,747.006 100.054 -81.083
5,788.651 98.241 -69.317
5,830.598 96.859 -53.879
5,872.849 96.366 -36.732
5,915.406 96.851 -20.945
5,958.271 97.890 -8.700
6,001.447 99.052 -0.306
6,044.937 100.127 5.070
6,088.740 101.041 8.479
6,132.862 101.801 10.843
6,177.303 102.455 12.710
6,222.066 103.038 14.261
6,267.154 103.573 15.570
6,312.568 104.074 16.691
6,358.312 104.552 17.635
6,404.387 105.015 18.369
6,450.796 105.467 18.863
6,497.541 105.907 19.097
6,544.625 106.333 19.069
6,592.050 106.738 18.796
6,639.818 107.123 18.294
6,687.934 107.486 17.571
6,736.397 107.825 16.621
6,785.211 108.136 15.460
6,834.380 108.423 14.115
6,883.905 108.684 12.588
6,933.789 108.914 10.866
6,984.034 109.107 8.932
7,034.643 109.252 6.820
7,085.619 109.341 4.618
7,136.964 109.380 2.411
7,188.681 109.364 0.238
7,240.773 109.290 -1.854
7,293.243 109.167 -3.761
7,346.093 109.010 -5.350
7,399.326 108.833 -6.545
7,452.944 108.659 -7.366
7,506.951 108.515 -7.893
7,561.350 108.426 -8.268
7,616.143 108.399 -8.712
7,671.332 108.420 -9.481
7,726.922 108.452 -10.767
7,782.915 108.450 -12.590
7,839.312 108.380 -14.790
7,896.120 108.230 -17.157
7,953.338 107.997 -19.502
8,010.971 107.686 -21.687
8,069.022 107.310 -23.593
8,127.493 106.871 -25.128
8,186.389 106.382 -26.208
8,245.711 105.860 -26.758
8,305.462 105.331 -26.759
8,365.647 104.822 -26.280
8,426.268 104.338 -25.433
8,487.328 103.880 -24.298
8,548.831 103.448 -22.862
8,610.779 103.048 -21.091
8,673.177 102.698 -19.014
8,736.026 102.407 -16.734
8,799.331 102.172 -14.387
8,863.095 101.981 -12.059
8,927.320 101.828 -9.761
8,992.011 101.710 -7.468
9,057.171 101.640 -5.167
9,122.803 101.631 -2.941
9,188.910 101.675 -0.986
9,255.497 101.734 0.597
9,322.566 101.787 2.003
9,390.121 101.862 3.287
9,458.166 101.960 4.192
9,526.704 102.055 4.642
9,595.738 102.121 4.763
9,665.273 102.133 4.657
9,735.312 102.070 4.469
9,805.857 101.936 4.510
9,876.915 101.773 4.945
9,948.487 101.613 5.635
10,020.578 101.450 6.477
10,093.191 101.270 7.591
10,166.331 101.084 9.146
10,240.000 100.925 11.175
10,314.203 100.823 13.575
10,388.944 100.796 16.217
10,464.227 100.863 19.002
10,540.055 101.043 21.803
10,616.433 101.345 24.367
10,693.363 101.758 26.279
10,770.853 102.221 27.142
10,848.902 102.647 26.922
10,927.518 102.983 26.000
11,006.703 103.224 24.811
11,086.462 103.386 23.598
11,166.799 103.489 22.496
11,247.719 103.560 21.605
11,329.224 103.638 20.870
11,411.320 103.738 20.009
11,494.012 103.833 18.759
11,577.302 103.878 17.193
11,661.195 103.858 15.594
11,745.697 103.787 14.099
11,830.812 103.682 12.608
11,916.543 103.519 10.960
12,002.895 103.242 9.298
12,089.873 102.812 8.302
12,177.480 102.274 8.882
12,265.724 101.795 11.411
12,354.606 101.576 15.200
12,444.133 101.695 18.951
12,534.309 102.061 21.578
12,625.137 102.499 22.651
12,716.624 102.890 22.486
12,808.773 103.206 21.612
12,901.592 103.446 20.331
12,995.082 103.608 18.826
13,089.250 103.697 17.295
13,184.100 103.722 15.960
13,279.637 103.724 15.053
13,375.867 103.769 14.618
13,472.794 103.909 14.377
13,570.423 104.172 13.864
13,668.760 104.537 12.582
13,767.810 104.944 10.085
13,867.577 105.304 6.099
13,968.067 105.522 0.694
14,069.285 105.514 -5.679
14,171.237 105.225 -12.279
14,273.928 104.656 -18.276
14,377.362 103.862 -23.060
14,481.547 102.923 -26.364
14,586.486 101.931 -28.105
14,692.186 100.966 -28.427
14,798.651 100.065 -27.680
14,905.889 99.243 -26.097
15,013.902 98.516 -23.781
15,122.700 97.904 -20.905
15,232.285 97.425 -17.692
15,342.664 97.093 -14.342
15,453.844 96.907 -11.119
15,565.829 96.836 -8.305
15,678.625 96.843 -6.023
15,792.239 96.890 -4.265
15,906.676 96.946 -2.932
16,021.942 97.004 -1.856
16,138.044 97.089 -0.953
16,254.986 97.226 -0.313
16,372.777 97.412 -0.111
16,491.422 97.629 -0.542
16,610.924 97.849 -1.852
16,731.295 98.004 -4.152
16,852.535 98.031 -7.156
16,974.656 97.890 -10.361
17,097.662 97.576 -13.192
17,221.559 97.132 -15.091
17,346.354 96.657 -15.811
17,472.053 96.262 -15.597
17,598.662 96.020 -15.046
17,726.189 95.918 -14.748
17,854.641 95.899 -14.993
17,984.021 95.946 -15.878
18,114.342 96.029 -17.687
18,245.605 96.053 -20.612
18,377.820 95.949 -24.254
18,510.994 95.722 -28.044
18,645.133 95.395 -31.746
18,780.242 94.992 -35.288
18,916.332 94.546 -38.699
19,053.408 94.083 -42.313
19,191.477 93.556 -46.500
19,330.547 92.868 -51.090
19,470.623 91.961 -55.370
19,611.715 90.871 -58.662
19,753.830 89.701 -60.749
19,896.975 88.642 -61.823
