* Measurement data measured by REW V5.20 Beta 4
* Source: Microphone (E.A.R.S Gain: 18dB  ), no input selected, R, volume: no control
* Format: 256k Log Swept Sine, 1 sweep at -9.0 dBFS  With no timing reference
* Dated: Jan 28, 2019 11:06:54 AM
* REW Settings:
*  C-weighting compensation: Off
*  Target level: 75.0 dB
* Note: ; 
* Measurement: Audio-Technica M50x R
* Smoothing: 1/48 octave
* Frequency Step: 1/96 octave
* Start Frequency: 20.1 Hz
*
* Freq(Hz) SPL(dB) Phase(degrees)
20.145 103.481 93.539
20.291 103.532 93.334
20.438 103.583 92.998
20.586 103.658 92.474
20.735 103.776 91.743
20.885 103.894 91.012
21.037 103.996 90.361
21.189 104.093 89.737
21.343 104.185 89.141
21.497 104.272 88.571
21.653 104.358 87.997
21.810 104.445 87.412
21.968 104.530 86.829
22.127 104.613 86.251
22.288 104.695 85.676
22.449 104.774 85.107
22.612 104.852 84.543
22.776 104.928 83.980
22.941 105.003 83.419
23.107 105.076 82.859
23.274 105.148 82.304
23.443 105.218 81.751
23.613 105.287 81.201
23.784 105.355 80.653
23.956 105.422 80.108
24.130 105.487 79.565
24.305 105.552 79.024
24.481 105.616 78.485
24.658 105.679 77.947
24.837 105.741 77.410
25.017 105.803 76.872
25.198 105.864 76.335
25.381 105.925 75.795
25.565 105.985 75.254
25.750 106.044 74.709
25.937 106.104 74.161
26.125 106.162 73.609
26.314 106.220 73.052
26.505 106.277 72.491
26.697 106.333 71.925
26.890 106.389 71.353
27.085 106.443 70.777
27.281 106.497 70.196
27.479 106.550 69.611
27.678 106.601 69.021
27.879 106.652 68.428
28.081 106.701 67.831
28.284 106.749 67.231
28.489 106.797 66.628
28.696 106.843 66.023
28.904 106.888 65.416
29.113 106.932 64.806
29.324 106.976 64.194
29.537 107.018 63.581
29.751 107.059 62.965
29.966 107.100 62.349
30.183 107.139 61.731
30.402 107.178 61.113
30.622 107.215 60.494
30.844 107.252 59.875
31.068 107.287 59.257
31.293 107.322 58.640
31.520 107.356 58.025
31.748 107.389 57.412
31.978 107.422 56.801
32.210 107.454 56.194
32.443 107.486 55.589
32.678 107.517 54.987
32.915 107.549 54.388
33.154 107.580 53.791
33.394 107.612 53.195
33.636 107.645 52.599
33.880 107.678 52.002
34.125 107.711 51.402
34.372 107.744 50.799
34.621 107.778 50.190
34.872 107.812 49.576
35.125 107.847 48.954
35.380 107.881 48.325
35.636 107.915 47.687
35.894 107.948 47.041
36.154 107.981 46.386
36.416 108.013 45.723
36.680 108.044 45.051
36.946 108.074 44.372
37.214 108.103 43.686
37.483 108.130 42.994
37.755 108.156 42.296
38.029 108.180 41.593
38.304 108.203 40.887
38.582 108.224 40.177
38.861 108.244 39.465
39.143 108.262 38.751
39.427 108.279 38.037
39.712 108.294 37.322
40.000 108.308 36.606
40.290 108.321 35.891
40.582 108.332 35.175
40.876 108.343 34.459
41.172 108.352 33.741
41.470 108.360 33.022
41.771 108.367 32.300
42.074 108.373 31.575
42.379 108.378 30.846
42.686 108.382 30.111
42.995 108.384 29.371
43.306 108.384 28.624
43.620 108.383 27.871
43.936 108.379 27.112
44.255 108.373 26.347
44.575 108.364 25.576
44.898 108.352 24.801
45.224 108.337 24.022
45.552 108.318 23.243
45.882 108.295 22.465
46.214 108.268 21.691
46.549 108.237 20.924
46.886 108.202 20.168
47.226 108.163 19.428
47.568 108.119 18.708
47.913 108.072 18.012
48.260 108.022 17.346
48.610 107.969 16.712
48.962 107.916 16.111
49.317 107.862 15.545
49.674 107.810 15.010
50.034 107.760 14.503
50.397 107.712 14.018
50.762 107.668 13.547
51.130 107.629 13.079
51.500 107.593 12.606
51.874 107.560 12.119
52.249 107.529 11.609
52.628 107.499 11.069
53.009 107.469 10.497
53.394 107.436 9.892
53.781 107.399 9.256
54.170 107.356 8.597
54.563 107.307 7.920
54.958 107.250 7.237
55.356 107.186 6.557
55.758 107.114 5.889
56.162 107.034 5.243
56.569 106.948 4.626
56.978 106.856 4.041
57.391 106.758 3.493
57.807 106.656 2.984
58.226 106.550 2.515
58.648 106.439 2.089
59.073 106.326 1.707
59.501 106.209 1.374
59.932 106.089 1.091
60.367 105.966 0.865
60.804 105.842 0.697
61.245 105.717 0.594
61.688 105.592 0.559
62.135 105.467 0.596
62.586 105.345 0.708
63.039 105.226 0.900
63.496 105.114 1.171
63.956 105.008 1.520
64.420 104.913 1.943
64.886 104.830 2.434
65.357 104.761 2.982
65.830 104.709 3.573
66.307 104.674 4.188
66.788 104.659 4.808
67.272 104.663 5.411
67.759 104.686 5.971
68.250 104.728 6.467
68.745 104.787 6.875
69.243 104.860 7.175
69.745 104.945 7.348
70.250 105.039 7.376
70.759 105.137 7.241
71.272 105.235 6.933
71.788 105.328 6.440
72.309 105.410 5.763
72.833 105.472 4.908
73.360 105.508 3.896
73.892 105.512 2.760
74.427 105.476 1.551
74.967 105.396 0.333
75.510 105.269 -0.812
76.057 105.097 -1.796
76.608 104.884 -2.526
77.163 104.641 -2.923
77.723 104.382 -2.926
78.286 104.124 -2.510
78.853 103.885 -1.691
79.424 103.685 -0.528
80.000 103.535 0.883
80.580 103.443 2.432
81.164 103.409 4.005
81.752 103.428 5.507
82.344 103.489 6.867
82.941 103.584 8.042
83.542 103.700 9.015
84.147 103.830 9.788
84.757 103.967 10.375
85.371 104.105 10.795
85.990 104.240 11.072
86.613 104.372 11.228
87.241 104.498 11.282
87.873 104.618 11.249
88.510 104.731 11.143
89.151 104.839 10.974
89.797 104.939 10.754
90.448 105.034 10.491
91.103 105.124 10.191
91.763 105.208 9.854
92.428 105.288 9.482
93.098 105.362 9.079
93.773 105.430 8.650
94.452 105.493 8.202
95.137 105.551 7.742
95.826 105.604 7.277
96.520 105.654 6.806
97.220 105.702 6.326
97.924 105.748 5.831
98.634 105.791 5.318
99.349 105.830 4.789
100.069 105.866 4.248
100.794 105.898 3.699
101.524 105.929 3.137
102.260 105.957 2.555
103.001 105.983 1.945
103.747 106.005 1.300
104.499 106.022 0.612
105.256 106.031 -0.138
106.019 106.027 -0.962
106.787 105.998 -1.850
107.561 105.933 -2.718
108.340 105.828 -3.409
109.126 105.698 -3.742
109.916 105.579 -3.637
110.713 105.515 -3.208
111.515 105.524 -2.739
112.323 105.591 -2.511
113.137 105.681 -2.657
113.957 105.759 -3.135
114.783 105.810 -3.821
115.614 105.831 -4.596
116.452 105.825 -5.387
117.296 105.797 -6.155
118.146 105.748 -6.873
119.002 105.681 -7.516
119.865 105.598 -8.046
120.733 105.504 -8.429
121.608 105.408 -8.636
122.489 105.320 -8.672
123.377 105.251 -8.576
124.271 105.207 -8.419
125.171 105.186 -8.274
126.078 105.182 -8.192
126.992 105.189 -8.188
127.912 105.202 -8.255
128.839 105.218 -8.379
129.773 105.237 -8.566
130.713 105.258 -8.826
131.660 105.276 -9.161
132.615 105.286 -9.551
133.575 105.287 -9.963
134.543 105.281 -10.370
135.518 105.272 -10.762
136.500 105.262 -11.148
137.490 105.251 -11.542
138.486 105.239 -11.952
139.489 105.224 -12.377
140.500 105.206 -12.815
141.518 105.184 -13.263
142.544 105.157 -13.710
143.577 105.127 -14.152
144.617 105.095 -14.590
145.665 105.060 -15.028
146.721 105.021 -15.462
147.784 104.979 -15.882
148.855 104.935 -16.284
149.933 104.891 -16.678
151.020 104.846 -17.074
152.114 104.797 -17.470
153.217 104.745 -17.852
154.327 104.690 -18.213
155.445 104.634 -18.556
156.572 104.577 -18.886
157.706 104.518 -19.205
158.849 104.456 -19.505
160.000 104.393 -19.778
161.159 104.330 -20.022
162.327 104.268 -20.246
163.504 104.209 -20.457
164.688 104.150 -20.661
165.882 104.093 -20.858
167.084 104.038 -21.051
168.295 103.984 -21.240
169.514 103.933 -21.433
170.742 103.884 -21.637
171.980 103.836 -21.861
173.226 103.786 -22.101
174.481 103.735 -22.351
175.746 103.682 -22.611
177.019 103.627 -22.881
178.302 103.568 -23.156
179.594 103.506 -23.424
180.895 103.441 -23.683
182.206 103.374 -23.933
183.527 103.304 -24.170
184.856 103.232 -24.388
186.196 103.159 -24.584
187.545 103.087 -24.759
188.904 103.017 -24.923
190.273 102.949 -25.094
191.652 102.880 -25.274
193.041 102.807 -25.447
194.440 102.734 -25.600
195.849 102.661 -25.739
197.268 102.588 -25.868
198.697 102.517 -25.992
200.137 102.448 -26.127
201.587 102.378 -26.286
203.048 102.304 -26.460
204.520 102.227 -26.631
206.002 102.149 -26.797
207.494 102.070 -26.965
208.998 101.990 -27.143
210.512 101.908 -27.330
212.038 101.822 -27.523
213.574 101.730 -27.712
215.122 101.634 -27.875
216.681 101.537 -28.012
218.251 101.440 -28.154
219.833 101.337 -28.310
221.426 101.225 -28.439
223.030 101.109 -28.518
224.646 100.995 -28.567
226.274 100.880 -28.615
227.914 100.760 -28.656
229.565 100.637 -28.668
231.229 100.510 -28.647
232.905 100.380 -28.590
234.592 100.250 -28.497
236.292 100.119 -28.383
238.004 99.984 -28.254
239.729 99.843 -28.076
241.466 99.702 -27.818
243.216 99.567 -27.499
244.979 99.440 -27.165
246.754 99.316 -26.843
248.542 99.187 -26.543
250.343 99.045 -26.189
252.157 98.902 -25.711
253.984 98.770 -25.165
255.825 98.644 -24.613
257.678 98.517 -24.027
259.546 98.390 -23.363
261.426 98.271 -22.613
263.321 98.164 -21.806
265.229 98.069 -20.972
267.151 97.988 -20.140
269.087 97.919 -19.329
271.037 97.861 -18.572
273.001 97.810 -17.909
274.979 97.758 -17.338
276.972 97.699 -16.834
278.979 97.633 -16.387
281.000 97.556 -15.991
283.037 97.462 -15.620
285.088 97.348 -15.232
287.153 97.214 -14.771
289.234 97.063 -14.184
291.330 96.897 -13.430
293.441 96.724 -12.438
295.568 96.558 -11.161
297.710 96.420 -9.663
299.867 96.313 -8.049
302.040 96.235 -6.364
304.228 96.185 -4.626
306.433 96.168 -2.887
308.654 96.180 -1.214
310.890 96.213 0.368
313.143 96.262 1.874
315.412 96.328 3.297
317.698 96.406 4.621
320.000 96.493 5.855
322.319 96.588 7.003
324.655 96.689 8.053
327.007 96.792 9.016
329.377 96.895 9.905
331.764 96.997 10.729
334.168 97.099 11.498
336.589 97.202 12.211
339.028 97.303 12.866
341.485 97.403 13.476
343.959 97.501 14.055
346.452 97.601 14.597
348.962 97.700 15.089
351.491 97.797 15.540
354.038 97.893 15.958
356.604 97.986 16.338
359.188 98.075 16.681
361.791 98.160 16.997
364.412 98.241 17.298
367.053 98.320 17.591
369.713 98.399 17.875
372.392 98.478 18.130
375.090 98.554 18.350
377.809 98.625 18.562
380.546 98.693 18.783
383.304 98.761 19.007
386.081 98.830 19.219
388.879 98.899 19.410
391.697 98.965 19.584
394.536 99.030 19.748
397.395 99.094 19.904
400.274 99.158 20.037
403.175 99.219 20.143
406.096 99.274 20.249
409.039 99.326 20.372
412.003 99.381 20.506
414.989 99.441 20.598
417.996 99.496 20.633
421.025 99.545 20.662
424.076 99.591 20.705
427.149 99.635 20.759
430.244 99.678 20.821
433.362 99.721 20.890
436.502 99.764 20.959
439.665 99.806 21.017
442.851 99.845 21.063
446.060 99.882 21.107
449.293 99.916 21.157
452.548 99.949 21.212
455.828 99.982 21.267
459.131 100.013 21.321
462.458 100.042 21.384
465.809 100.070 21.464
469.184 100.101 21.560
472.584 100.135 21.658
476.009 100.172 21.735
479.458 100.209 21.778
482.933 100.242 21.794
486.432 100.269 21.805
489.957 100.291 21.844
493.507 100.312 21.921
497.084 100.335 22.027
500.686 100.365 22.146
504.314 100.402 22.240
507.968 100.441 22.270
511.649 100.475 22.247
515.357 100.501 22.214
519.091 100.522 22.195
522.853 100.540 22.192
526.642 100.556 22.206
530.458 100.572 22.235
534.302 100.589 22.272
538.174 100.605 22.312
542.074 100.621 22.354
546.002 100.636 22.401
549.958 100.650 22.456
553.943 100.666 22.517
557.958 100.682 22.577
562.001 100.698 22.637
566.073 100.714 22.698
570.175 100.731 22.760
574.307 100.748 22.818
578.469 100.765 22.865
582.660 100.780 22.905
586.883 100.794 22.943
591.135 100.806 22.983
595.419 100.819 23.020
599.734 100.829 23.056
604.080 100.839 23.102
608.457 100.848 23.163
612.866 100.858 23.226
617.307 100.868 23.283
621.780 100.876 23.336
626.286 100.884 23.388
630.824 100.890 23.446
635.396 100.896 23.514
640.000 100.903 23.587
644.638 100.911 23.655
649.309 100.917 23.719
654.014 100.921 23.789
658.753 100.924 23.873
663.527 100.928 23.966
668.335 100.931 24.057
673.178 100.933 24.151
678.056 100.936 24.247
682.970 100.939 24.347
687.919 100.941 24.453
692.904 100.944 24.564
697.925 100.947 24.672
702.982 100.949 24.782
708.076 100.953 24.894
713.208 100.956 25.008
718.376 100.959 25.125
723.581 100.962 25.244
728.825 100.965 25.366
734.106 100.968 25.493
739.426 100.971 25.615
744.784 100.974 25.733
750.181 100.976 25.852
755.617 100.976 25.977
761.093 100.977 26.109
766.608 100.978 26.241
772.163 100.979 26.368
777.758 100.979 26.494
783.394 100.978 26.624
789.071 100.977 26.752
794.789 100.973 26.883
800.548 100.969 27.028
806.349 100.964 27.183
812.193 100.960 27.343
818.078 100.956 27.516
824.006 100.952 27.696
829.977 100.948 27.872
835.992 100.942 28.056
842.050 100.937 28.254
848.151 100.933 28.461
854.297 100.931 28.669
860.488 100.928 28.878
866.724 100.924 29.095
873.004 100.921 29.318
879.330 100.919 29.540
885.702 100.916 29.766
892.120 100.912 30.004
898.585 100.909 30.258
905.097 100.906 30.531
911.655 100.907 30.811
918.262 100.910 31.080
924.916 100.914 31.336
931.618 100.918 31.586
938.369 100.921 31.839
945.169 100.925 32.096
952.018 100.930 32.352
958.917 100.936 32.602
965.865 100.942 32.852
972.864 100.948 33.099
979.914 100.952 33.338
987.015 100.954 33.575
994.167 100.954 33.826
1,001.371 100.957 34.087
1,008.628 100.961 34.343
1,015.937 100.963 34.590
1,023.299 100.963 34.838
1,030.714 100.962 35.094
1,038.183 100.960 35.346
1,045.706 100.958 35.596
1,053.283 100.953 35.856
1,060.916 100.945 36.136
1,068.604 100.936 36.434
1,076.347 100.927 36.733
1,084.147 100.915 37.037
1,092.003 100.900 37.366
1,099.916 100.883 37.735
1,107.887 100.865 38.144
1,115.915 100.845 38.605
1,124.001 100.826 39.123
1,132.146 100.811 39.704
1,140.350 100.803 40.350
1,148.614 100.808 41.058
1,156.937 100.830 41.803
1,165.321 100.871 42.532
1,173.765 100.929 43.205
1,182.271 101.002 43.790
1,190.838 101.083 44.249
1,199.467 101.167 44.559
1,208.159 101.243 44.738
1,216.914 101.305 44.816
1,225.732 101.351 44.841
1,234.614 101.380 44.858
1,243.561 101.396 44.894
1,252.572 101.401 44.965
1,261.649 101.398 45.077
1,270.791 101.388 45.239
1,280.000 101.375 45.451
1,289.275 101.359 45.711
1,298.618 101.344 46.012
1,308.028 101.330 46.347
1,317.507 101.316 46.705
1,327.054 101.301 47.079
1,336.670 101.283 47.475
1,346.357 101.261 47.912
1,356.113 101.240 48.393
1,365.940 101.219 48.906
1,375.838 101.199 49.460
1,385.808 101.181 50.052
1,395.850 101.165 50.665
1,405.965 101.152 51.294
1,416.153 101.138 51.941
1,426.415 101.121 52.619
1,436.751 101.100 53.358
1,447.163 101.077 54.198
1,457.649 101.063 55.149
1,468.212 101.066 56.174
1,478.851 101.088 57.216
1,489.568 101.126 58.206
1,500.362 101.166 59.121
1,511.234 101.200 60.000
1,522.185 101.225 60.905
1,533.215 101.247 61.900
1,544.326 101.275 63.001
1,555.517 101.317 64.176
1,566.789 101.371 65.389
1,578.142 101.438 66.645
1,589.578 101.522 67.947
1,601.097 101.624 69.249
1,612.699 101.745 70.520
1,624.385 101.881 71.741
1,636.156 102.031 72.907
1,648.012 102.191 74.010
1,659.955 102.359 75.062
1,671.983 102.534 76.050
1,684.099 102.713 76.983
1,696.303 102.900 77.890
1,708.595 103.097 78.751
1,720.976 103.304 79.545
1,733.447 103.518 80.265
1,746.008 103.737 80.892
1,758.661 103.956 81.429
1,771.405 104.174 81.880
1,784.241 104.390 82.266
1,797.170 104.607 82.609
1,810.193 104.823 82.905
1,823.311 105.041 83.152
1,836.523 105.259 83.332
1,849.831 105.476 83.439
1,863.236 105.689 83.488
1,876.738 105.898 83.499
1,890.338 106.106 83.472
1,904.036 106.312 83.391
1,917.833 106.514 83.265
1,931.730 106.716 83.100
1,945.729 106.914 82.887
1,959.828 107.107 82.627
1,974.030 107.297 82.320
1,988.334 107.482 81.969
2,002.743 107.662 81.569
2,017.255 107.834 81.133
2,031.873 107.998 80.670
2,046.597 108.154 80.185
2,061.428 108.302 79.685
2,076.365 108.441 79.184
2,091.412 108.571 78.703
2,106.567 108.694 78.253
2,121.832 108.812 77.854
2,137.208 108.932 77.533
2,152.695 109.062 77.259
2,168.294 109.206 76.960
2,184.007 109.357 76.588
2,199.833 109.512 76.144
2,215.774 109.666 75.625
2,231.830 109.815 75.022
2,248.003 109.954 74.342
2,264.293 110.083 73.609
2,280.701 110.199 72.845
2,297.228 110.304 72.071
2,313.874 110.396 71.312
2,330.642 110.478 70.590
2,347.530 110.550 69.929
2,364.542 110.621 69.344
2,381.676 110.696 68.819
2,398.935 110.780 68.316
2,416.318 110.874 67.792
2,433.828 110.978 67.212
2,451.464 111.086 66.517
2,469.229 111.182 65.666
2,487.122 111.255 64.715
2,505.145 111.300 63.767
2,523.298 111.326 62.909
2,541.583 111.342 62.179
2,560.000 111.359 61.550
2,578.551 111.379 60.974
2,597.236 111.400 60.420
2,616.057 111.421 59.885
2,635.014 111.445 59.357
2,654.108 111.469 58.817
2,673.341 111.489 58.281
2,692.713 111.506 57.760
2,712.226 111.520 57.242
2,731.879 111.529 56.727
2,751.676 111.531 56.226
2,771.615 111.529 55.742
2,791.700 111.521 55.279
2,811.930 111.509 54.846
2,832.306 111.491 54.444
2,852.830 111.462 54.090
2,873.503 111.421 53.834
2,894.325 111.376 53.742
2,915.299 111.344 53.830
2,936.424 111.342 54.025
2,957.703 111.370 54.173
2,979.136 111.409 54.156
3,000.724 111.441 53.995
3,022.468 111.457 53.784
3,044.370 111.459 53.591
3,066.431 111.452 53.452
3,088.652 111.439 53.389
3,111.033 111.425 53.412
3,133.577 111.410 53.520
3,156.284 111.399 53.694
3,179.156 111.391 53.915
3,202.193 111.387 54.172
3,225.398 111.385 54.464
3,248.771 111.382 54.810
3,272.312 111.379 55.247
3,296.025 111.380 55.796
3,319.909 111.390 56.447
3,343.967 111.411 57.196
3,368.198 111.447 58.034
3,392.606 111.500 58.943
3,417.190 111.572 59.904
3,441.952 111.662 60.910
3,466.894 111.770 61.975
3,492.017 111.897 63.103
3,517.321 112.048 64.288
3,542.809 112.226 65.516
3,568.482 112.438 66.771
3,594.341 112.686 68.027
3,620.387 112.972 69.254
3,646.622 113.296 70.411
3,673.046 113.658 71.470
3,699.663 114.061 72.396
3,726.472 114.506 73.129
3,753.476 114.991 73.621
3,780.675 115.511 73.819
3,808.071 116.061 73.670
3,835.666 116.632 73.127
3,863.461 117.212 72.159
3,891.457 117.791 70.748
3,919.656 118.358 68.902
3,948.060 118.902 66.656
3,976.669 119.418 64.049
4,005.486 119.900 61.095
4,034.511 120.333 57.813
4,063.747 120.700 54.314
4,093.194 121.002 50.681
4,122.855 121.241 46.877
4,152.731 121.420 42.881
4,182.824 121.556 38.778
4,213.134 121.658 34.677
4,243.664 121.735 30.582
4,274.416 121.797 26.418
4,305.390 121.849 22.104
4,336.588 121.889 17.586
4,368.013 121.921 12.842
4,399.666 121.946 7.823
4,431.547 121.949 2.454
4,463.660 121.921 -3.261
4,496.005 121.868 -9.179
4,528.585 121.784 -15.180
4,561.401 121.647 -21.169
4,594.455 121.413 -27.102
4,627.749 121.023 -32.815
4,661.283 120.445 -37.978
4,695.061 119.698 -42.359
4,729.083 118.830 -45.903
4,763.352 117.905 -48.626
4,797.869 116.978 -50.529
4,832.637 116.072 -51.688
4,867.656 115.200 -52.207
4,902.929 114.372 -52.181
4,938.458 113.605 -51.753
4,974.244 112.900 -51.118
5,010.289 112.241 -50.408
5,046.596 111.605 -49.606
5,083.166 110.986 -48.621
5,120.000 110.387 -47.436
5,157.102 109.811 -46.110
5,194.472 109.252 -44.707
5,232.113 108.695 -43.226
5,270.027 108.125 -41.558
5,308.216 107.540 -39.507
5,346.682 106.962 -36.916
5,385.426 106.420 -33.802
5,424.451 105.935 -30.279
5,463.759 105.511 -26.402
5,503.352 105.160 -22.167
5,543.231 104.914 -17.623
5,583.399 104.798 -12.965
5,623.859 104.808 -8.481
5,664.612 104.918 -4.408
5,705.660 105.094 -0.872
5,747.006 105.299 2.126
5,788.651 105.509 4.688
5,830.598 105.711 6.972
5,872.849 105.906 9.126
5,915.406 106.105 11.247
5,958.271 106.328 13.367
6,001.447 106.589 15.416
6,044.937 106.889 17.281
6,088.740 107.223 18.870
6,132.862 107.583 20.145
6,177.303 107.959 21.106
6,222.066 108.342 21.763
6,267.154 108.725 22.158
6,312.568 109.111 22.314
6,358.312 109.506 22.222
6,404.387 109.912 21.838
6,450.796 110.323 21.111
6,497.541 110.726 20.017
6,544.625 111.111 18.556
6,592.050 111.474 16.745
6,639.818 111.812 14.577
6,687.934 112.115 12.008
6,736.397 112.367 9.019
6,785.211 112.550 5.686
6,834.380 112.652 2.158
6,883.905 112.669 -1.414
6,933.789 112.606 -4.916
6,984.034 112.475 -8.275
7,034.643 112.281 -11.454
7,085.619 112.029 -14.418
7,136.964 111.727 -17.116
7,188.681 111.385 -19.486
7,240.773 111.010 -21.482
7,293.243 110.608 -23.068
7,346.093 110.190 -24.199
7,399.326 109.776 -24.842
7,452.944 109.396 -25.017
7,506.951 109.082 -24.859
7,561.350 108.852 -24.619
7,616.143 108.694 -24.593
7,671.332 108.577 -24.989
7,726.922 108.457 -25.848
7,782.915 108.297 -27.070
7,839.312 108.078 -28.454
7,896.120 107.804 -29.802
7,953.338 107.488 -31.005
8,010.971 107.135 -32.053
8,069.022 106.757 -32.965
8,127.493 106.357 -33.755
8,186.389 105.923 -34.366
8,245.711 105.459 -34.675
8,305.462 104.981 -34.601
8,365.647 104.500 -34.213
8,426.268 104.019 -33.578
8,487.328 103.531 -32.655
8,548.831 103.042 -31.353
8,610.779 102.571 -29.629
8,673.177 102.139 -27.571
8,736.026 101.753 -25.298
8,799.331 101.408 -22.833
8,863.095 101.107 -20.153
8,927.320 100.857 -17.301
8,992.011 100.668 -14.364
9,057.171 100.542 -11.401
9,122.803 100.481 -8.484
9,188.910 100.475 -5.709
9,255.497 100.506 -3.158
9,322.566 100.567 -0.821
9,390.121 100.663 1.353
9,458.166 100.796 3.345
9,526.704 100.960 5.074
9,595.738 101.147 6.457
9,665.273 101.341 7.488
9,735.312 101.534 8.211
9,805.857 101.720 8.671
9,876.915 101.894 8.864
9,948.487 102.050 8.765
10,020.578 102.182 8.385
10,093.191 102.284 7.764
10,166.331 102.342 6.945
10,240.000 102.344 5.978
10,314.203 102.281 4.950
10,388.944 102.144 3.995
10,464.227 101.931 3.350
10,540.055 101.672 3.316
10,616.433 101.435 3.982
10,693.363 101.272 5.022
10,770.853 101.182 5.960
10,848.902 101.114 6.563
10,927.518 101.017 6.930
11,006.703 100.880 7.346
11,086.462 100.721 8.033
11,166.799 100.557 9.029
11,247.719 100.410 10.307
11,329.224 100.302 11.847
11,411.320 100.242 13.551
11,494.012 100.219 15.254
11,577.302 100.209 16.979
11,661.195 100.232 19.058
11,745.697 100.366 21.638
11,830.812 100.686 24.227
11,916.543 101.189 26.017
12,002.895 101.783 26.463
12,089.873 102.364 25.368
12,177.480 102.846 22.776
12,265.724 103.159 18.997
12,354.606 103.232 14.655
12,444.133 103.038 10.648
12,534.309 102.645 7.819
12,625.137 102.169 6.526
12,716.624 101.727 6.594
12,808.773 101.407 7.555
12,901.592 101.250 8.833
12,995.082 101.233 9.958
13,089.250 101.310 10.689
13,184.100 101.454 10.879
13,279.637 101.632 10.328
13,375.867 101.791 8.910
13,472.794 101.875 6.704
13,570.423 101.832 3.993
13,668.760 101.656 1.198
13,767.810 101.372 -1.355
13,867.577 100.988 -3.479
13,968.067 100.515 -4.921
14,069.285 99.994 -5.462
14,171.237 99.497 -5.156
14,273.928 99.084 -4.346
14,377.362 98.748 -3.448
14,481.547 98.430 -2.612
14,586.486 98.089 -1.658
14,692.186 97.714 -0.288
14,798.651 97.319 1.895
14,905.889 96.980 5.331
15,013.902 96.863 9.977
15,122.700 97.132 14.838
15,232.285 97.763 18.394
15,342.664 98.549 19.664
15,453.844 99.286 18.633
15,565.829 99.871 15.894
15,678.625 100.273 12.120
15,792.239 100.492 7.798
15,906.676 100.536 3.281
16,021.942 100.432 -1.091
16,138.044 100.209 -5.054
16,254.986 99.900 -8.523
16,372.777 99.535 -11.542
16,491.422 99.136 -14.167
16,610.924 98.716 -16.471
16,731.295 98.270 -18.511
16,852.535 97.809 -20.143
16,974.656 97.349 -21.262
17,097.662 96.913 -21.972
17,221.559 96.528 -22.428
17,346.354 96.210 -22.810
17,472.053 95.957 -23.326
17,598.662 95.739 -24.191
17,726.189 95.514 -25.443
17,854.641 95.246 -26.873
17,984.021 94.935 -28.163
18,114.342 94.636 -29.081
18,245.605 94.418 -29.742
18,377.820 94.322 -30.629
18,510.994 94.345 -32.345
18,645.133 94.420 -35.454
18,780.242 94.430 -40.262
18,916.332 94.244 -46.544
19,053.408 93.776 -53.507
19,191.477 93.021 -60.222
19,330.547 92.045 -66.119
19,470.623 90.922 -71.095
19,611.715 89.676 -75.224
19,753.830 88.318 -78.379
19,896.975 87.015 -80.308
