* Measurement data measured by REW V5.20 Beta 4
* Source: Microphone (E.A.R.S Gain: 18dB  ), no input selected, R, volume: no control
* Format: 256k Log Swept Sine, 1 sweep at -8.0 dBFS  With no timing reference
* Dated: Jan 28, 2019 10:58:29 AM
* REW Settings:
*  C-weighting compensation: Off
*  Target level: 75.0 dB
* Note: ; 
* Measurement: B&O BEOPLAY H4 R
* Smoothing: 1/48 octave
* Frequency Step: 1/96 octave
* Start Frequency: 20.1 Hz
*
* Freq(Hz) SPL(dB) Phase(degrees)
20.145 103.186 93.474
20.291 103.235 93.254
20.438 103.284 92.894
20.586 103.355 92.331
20.735 103.468 91.545
20.885 103.580 90.760
21.037 103.678 90.060
21.189 103.770 89.388
21.343 103.858 88.747
21.497 103.941 88.135
21.653 104.023 87.518
21.810 104.105 86.892
21.968 104.186 86.267
22.127 104.266 85.649
22.288 104.343 85.036
22.449 104.420 84.429
22.612 104.494 83.828
22.776 104.567 83.228
22.941 104.639 82.629
23.107 104.710 82.033
23.274 104.779 81.440
23.443 104.847 80.848
23.613 104.914 80.259
23.784 104.980 79.670
23.956 105.044 79.082
24.130 105.107 78.496
24.305 105.169 77.910
24.481 105.230 77.325
24.658 105.289 76.741
24.837 105.348 76.158
25.017 105.405 75.574
25.198 105.461 74.992
25.381 105.516 74.410
25.565 105.570 73.828
25.750 105.622 73.247
25.937 105.674 72.665
26.125 105.725 72.084
26.314 105.775 71.503
26.505 105.824 70.922
26.697 105.871 70.341
26.890 105.918 69.760
27.085 105.965 69.178
27.281 106.010 68.595
27.479 106.054 68.012
27.678 106.098 67.428
27.879 106.140 66.844
28.081 106.182 66.258
28.284 106.223 65.672
28.489 106.263 65.084
28.696 106.302 64.496
28.904 106.341 63.907
29.113 106.378 63.316
29.324 106.415 62.726
29.537 106.450 62.135
29.751 106.485 61.543
29.966 106.519 60.951
30.183 106.552 60.359
30.402 106.584 59.768
30.622 106.615 59.176
30.844 106.646 58.585
31.068 106.675 57.995
31.293 106.704 57.406
31.520 106.733 56.817
31.748 106.760 56.229
31.978 106.787 55.642
32.210 106.813 55.056
32.443 106.838 54.470
32.678 106.863 53.885
32.915 106.888 53.300
33.154 106.911 52.716
33.394 106.934 52.132
33.636 106.957 51.547
33.880 106.978 50.963
34.125 106.999 50.378
34.372 107.019 49.794
34.621 107.039 49.210
34.872 107.057 48.627
35.125 107.075 48.044
35.380 107.092 47.462
35.636 107.108 46.881
35.894 107.123 46.302
36.154 107.138 45.724
36.416 107.152 45.148
36.680 107.165 44.574
36.946 107.177 44.002
37.214 107.188 43.432
37.483 107.199 42.864
37.755 107.209 42.298
38.029 107.218 41.735
38.304 107.227 41.174
38.582 107.235 40.615
38.861 107.242 40.059
39.143 107.249 39.506
39.427 107.255 38.955
39.712 107.260 38.406
40.000 107.265 37.860
40.290 107.269 37.317
40.582 107.273 36.776
40.876 107.276 36.237
41.172 107.278 35.701
41.470 107.280 35.167
41.771 107.281 34.635
42.074 107.282 34.106
42.379 107.282 33.580
42.686 107.281 33.056
42.995 107.280 32.535
43.306 107.278 32.018
43.620 107.276 31.504
43.936 107.273 30.994
44.255 107.270 30.487
44.575 107.266 29.984
44.898 107.262 29.484
45.224 107.258 28.987
45.552 107.253 28.491
45.882 107.249 27.996
46.214 107.243 27.500
46.549 107.238 27.002
46.886 107.231 26.502
47.226 107.223 26.001
47.568 107.213 25.500
47.913 107.201 25.003
48.260 107.187 24.513
48.610 107.171 24.035
48.962 107.154 23.570
49.317 107.136 23.122
49.674 107.118 22.690
50.034 107.101 22.274
50.397 107.085 21.868
50.762 107.070 21.470
51.130 107.056 21.075
51.500 107.044 20.678
51.874 107.032 20.276
52.249 107.021 19.869
52.628 107.010 19.454
53.009 106.998 19.034
53.394 106.985 18.609
53.781 106.971 18.181
54.170 106.956 17.752
54.563 106.940 17.321
54.958 106.923 16.889
55.356 106.904 16.456
55.758 106.885 16.023
56.162 106.864 15.588
56.569 106.841 15.153
56.978 106.817 14.718
57.391 106.791 14.285
57.807 106.763 13.855
58.226 106.733 13.429
58.648 106.701 13.010
59.073 106.668 12.598
59.501 106.632 12.195
59.932 106.596 11.801
60.367 106.558 11.416
60.804 106.518 11.041
61.245 106.478 10.677
61.688 106.436 10.323
62.135 106.393 9.980
62.586 106.348 9.650
63.039 106.303 9.332
63.496 106.257 9.028
63.956 106.209 8.739
64.420 106.161 8.466
64.886 106.113 8.210
65.357 106.064 7.971
65.830 106.016 7.749
66.307 105.968 7.543
66.788 105.920 7.353
67.272 105.873 7.176
67.759 105.826 7.012
68.250 105.780 6.862
68.745 105.734 6.725
69.243 105.689 6.602
69.745 105.645 6.492
70.250 105.601 6.396
70.759 105.559 6.315
71.272 105.518 6.247
71.788 105.478 6.192
72.309 105.441 6.148
72.833 105.404 6.114
73.360 105.370 6.088
73.892 105.337 6.069
74.427 105.306 6.058
74.967 105.277 6.052
75.510 105.249 6.054
76.057 105.223 6.063
76.608 105.199 6.078
77.163 105.177 6.096
77.723 105.158 6.115
78.286 105.141 6.131
78.853 105.126 6.140
79.424 105.112 6.140
80.000 105.099 6.131
80.580 105.086 6.112
81.164 105.071 6.091
81.752 105.055 6.072
82.344 105.038 6.064
82.941 105.020 6.074
83.542 105.003 6.104
84.147 104.987 6.157
84.757 104.974 6.229
85.371 104.966 6.317
85.990 104.961 6.413
86.613 104.962 6.509
87.241 104.968 6.598
87.873 104.977 6.674
88.510 104.990 6.731
89.151 105.006 6.768
89.797 105.023 6.784
90.448 105.042 6.780
91.103 105.060 6.756
91.763 105.079 6.716
92.428 105.098 6.664
93.098 105.117 6.601
93.773 105.136 6.528
94.452 105.156 6.443
95.137 105.174 6.346
95.826 105.192 6.238
96.520 105.209 6.126
97.220 105.225 6.013
97.924 105.242 5.904
98.634 105.259 5.795
99.349 105.279 5.680
100.069 105.300 5.551
100.794 105.323 5.400
101.524 105.344 5.228
102.260 105.365 5.036
103.001 105.383 4.832
103.747 105.400 4.618
104.499 105.415 4.399
105.256 105.429 4.176
106.019 105.441 3.951
106.787 105.453 3.723
107.561 105.465 3.490
108.340 105.475 3.250
109.126 105.485 3.004
109.916 105.493 2.753
110.713 105.500 2.499
111.515 105.505 2.244
112.323 105.510 1.990
113.137 105.514 1.737
113.957 105.517 1.483
114.783 105.520 1.225
115.614 105.523 0.961
116.452 105.524 0.689
117.296 105.523 0.411
118.146 105.520 0.131
119.002 105.514 -0.146
119.865 105.507 -0.416
120.733 105.498 -0.676
121.608 105.487 -0.927
122.489 105.476 -1.168
123.377 105.465 -1.400
124.271 105.454 -1.626
125.171 105.442 -1.844
126.078 105.431 -2.058
126.992 105.420 -2.267
127.912 105.408 -2.473
128.839 105.397 -2.675
129.773 105.385 -2.871
130.713 105.374 -3.059
131.660 105.364 -3.244
132.615 105.355 -3.430
133.575 105.345 -3.616
134.543 105.336 -3.800
135.518 105.327 -3.979
136.500 105.319 -4.156
137.490 105.313 -4.335
138.486 105.307 -4.520
139.489 105.302 -4.712
140.500 105.296 -4.913
141.518 105.290 -5.120
142.544 105.284 -5.331
143.577 105.276 -5.545
144.617 105.269 -5.761
145.665 105.261 -5.980
146.721 105.252 -6.205
147.784 105.242 -6.434
148.855 105.231 -6.663
149.933 105.219 -6.886
151.020 105.207 -7.101
152.114 105.195 -7.313
153.217 105.183 -7.523
154.327 105.172 -7.733
155.445 105.160 -7.943
156.572 105.149 -8.149
157.706 105.138 -8.353
158.849 105.128 -8.556
160.000 105.118 -8.763
161.159 105.109 -8.975
162.327 105.100 -9.192
163.504 105.091 -9.417
164.688 105.082 -9.653
165.882 105.070 -9.893
167.084 105.058 -10.127
168.295 105.047 -10.358
169.514 105.038 -10.598
170.742 105.028 -10.854
171.980 105.018 -11.122
173.226 105.007 -11.399
174.481 104.995 -11.687
175.746 104.982 -11.989
177.019 104.968 -12.300
178.302 104.951 -12.617
179.594 104.934 -12.938
180.895 104.915 -13.265
182.206 104.894 -13.600
183.527 104.870 -13.938
184.856 104.845 -14.278
186.196 104.817 -14.621
187.545 104.786 -14.964
188.904 104.753 -15.302
190.273 104.716 -15.629
191.652 104.678 -15.942
193.041 104.640 -16.248
194.440 104.600 -16.549
195.849 104.559 -16.845
197.268 104.516 -17.138
198.697 104.471 -17.424
200.137 104.425 -17.698
201.587 104.378 -17.962
203.048 104.329 -18.219
204.520 104.278 -18.459
206.002 104.227 -18.671
207.494 104.179 -18.863
208.998 104.133 -19.053
210.512 104.087 -19.248
212.038 104.042 -19.445
213.574 103.996 -19.641
215.122 103.949 -19.830
216.681 103.901 -20.007
218.251 103.855 -20.174
219.833 103.811 -20.342
221.426 103.767 -20.523
223.030 103.721 -20.710
224.646 103.672 -20.887
226.274 103.623 -21.048
227.914 103.575 -21.203
229.565 103.529 -21.361
231.229 103.483 -21.528
232.905 103.436 -21.710
234.592 103.387 -21.898
236.292 103.336 -22.064
238.004 103.287 -22.212
239.729 103.243 -22.367
241.466 103.200 -22.538
243.216 103.158 -22.726
244.979 103.114 -22.936
246.754 103.064 -23.154
248.542 103.011 -23.354
250.343 102.959 -23.532
252.157 102.910 -23.726
253.984 102.859 -23.959
255.825 102.803 -24.213
257.678 102.740 -24.465
259.546 102.674 -24.700
261.426 102.605 -24.925
263.321 102.534 -25.148
265.229 102.459 -25.363
267.151 102.381 -25.562
269.087 102.300 -25.737
271.037 102.220 -25.886
273.001 102.139 -26.023
274.979 102.058 -26.152
276.972 101.976 -26.269
278.979 101.894 -26.376
281.000 101.810 -26.477
283.037 101.726 -26.570
285.088 101.641 -26.663
287.153 101.553 -26.747
289.234 101.462 -26.793
291.330 101.373 -26.807
293.441 101.285 -26.816
295.568 101.197 -26.819
297.710 101.110 -26.814
299.867 101.022 -26.812
302.040 100.933 -26.819
304.228 100.839 -26.817
306.433 100.743 -26.786
308.654 100.647 -26.720
310.890 100.553 -26.629
313.143 100.463 -26.532
315.412 100.374 -26.442
317.698 100.284 -26.365
320.000 100.191 -26.286
322.319 100.096 -26.182
324.655 100.001 -26.057
327.007 99.907 -25.924
329.377 99.812 -25.786
331.764 99.715 -25.638
334.168 99.616 -25.465
336.589 99.519 -25.261
339.028 99.424 -25.039
341.485 99.331 -24.815
343.959 99.238 -24.594
346.452 99.145 -24.378
348.962 99.050 -24.172
351.491 98.951 -23.968
354.038 98.847 -23.744
356.604 98.742 -23.486
359.188 98.638 -23.200
361.791 98.538 -22.908
364.412 98.436 -22.629
367.053 98.330 -22.351
369.713 98.219 -22.037
372.392 98.106 -21.676
375.090 97.995 -21.284
377.809 97.882 -20.878
380.546 97.765 -20.441
383.304 97.646 -19.955
386.081 97.526 -19.422
388.879 97.407 -18.842
391.697 97.290 -18.204
394.536 97.179 -17.511
397.395 97.078 -16.783
400.274 96.986 -16.046
403.175 96.899 -15.311
406.096 96.817 -14.575
409.039 96.742 -13.852
412.003 96.667 -13.148
414.989 96.592 -12.410
417.996 96.525 -11.627
421.025 96.469 -10.880
424.076 96.412 -10.208
427.149 96.348 -9.573
430.244 96.276 -8.929
433.362 96.200 -8.265
436.502 96.119 -7.562
439.665 96.038 -6.805
442.851 95.961 -6.033
446.060 95.882 -5.270
449.293 95.797 -4.479
452.548 95.709 -3.624
455.828 95.622 -2.705
459.131 95.537 -1.727
462.458 95.455 -0.687
465.809 95.376 0.426
469.184 95.304 1.615
472.584 95.240 2.875
476.009 95.188 4.199
479.458 95.150 5.594
482.933 95.134 7.040
486.432 95.142 8.475
489.957 95.166 9.863
493.507 95.204 11.208
497.084 95.259 12.485
500.686 95.325 13.642
504.314 95.393 14.679
507.968 95.462 15.620
511.649 95.528 16.474
515.357 95.586 17.267
519.091 95.639 18.029
522.853 95.685 18.775
526.642 95.726 19.528
530.458 95.766 20.292
534.302 95.804 21.054
538.174 95.840 21.834
542.074 95.878 22.648
546.002 95.921 23.473
549.958 95.968 24.289
553.943 96.015 25.095
557.958 96.064 25.912
562.001 96.118 26.737
566.073 96.176 27.537
570.175 96.234 28.303
574.307 96.291 29.068
578.469 96.353 29.852
582.660 96.423 30.599
586.883 96.492 31.300
591.135 96.558 31.999
595.419 96.625 32.708
599.734 96.693 33.417
604.080 96.762 34.117
608.457 96.830 34.809
612.866 96.901 35.486
617.307 96.974 36.149
621.780 97.049 36.823
626.286 97.130 37.508
630.824 97.216 38.175
635.396 97.302 38.826
640.000 97.389 39.474
644.638 97.478 40.118
649.309 97.572 40.747
654.014 97.669 41.343
658.753 97.764 41.920
663.527 97.863 42.505
668.335 97.967 43.067
673.178 98.074 43.591
678.056 98.185 44.086
682.970 98.298 44.543
687.919 98.413 44.957
692.904 98.528 45.319
697.925 98.640 45.618
702.982 98.749 45.889
708.076 98.856 46.153
713.208 98.962 46.390
718.376 99.063 46.600
723.581 99.158 46.796
728.825 99.250 46.993
734.106 99.339 47.186
739.426 99.426 47.378
744.784 99.512 47.571
750.181 99.596 47.755
755.617 99.675 47.948
761.093 99.755 48.153
766.608 99.838 48.351
772.163 99.921 48.528
777.758 100.001 48.700
783.394 100.080 48.878
789.071 100.156 49.065
794.789 100.230 49.284
800.548 100.309 49.533
806.349 100.396 49.759
812.193 100.481 49.941
818.078 100.562 50.129
824.006 100.647 50.325
829.977 100.735 50.501
835.992 100.823 50.656
842.050 100.909 50.809
848.151 100.995 50.976
854.297 101.087 51.138
860.488 101.180 51.271
866.724 101.273 51.392
873.004 101.371 51.489
879.330 101.468 51.546
885.702 101.563 51.574
892.120 101.655 51.589
898.585 101.745 51.589
905.097 101.834 51.585
911.655 101.924 51.585
918.262 102.016 51.562
924.916 102.109 51.496
931.618 102.199 51.402
938.369 102.286 51.310
945.169 102.376 51.207
952.018 102.465 51.056
958.917 102.551 50.869
965.865 102.632 50.669
972.864 102.711 50.458
979.914 102.786 50.211
987.015 102.854 49.938
994.167 102.915 49.688
1,001.371 102.977 49.470
1,008.628 103.042 49.252
1,015.937 103.107 48.994
1,023.299 103.166 48.718
1,030.714 103.226 48.428
1,038.183 103.284 48.088
1,045.706 103.336 47.723
1,053.283 103.381 47.359
1,060.916 103.423 46.997
1,068.604 103.461 46.633
1,076.347 103.498 46.248
1,084.147 103.529 45.818
1,092.003 103.548 45.362
1,099.916 103.557 44.931
1,107.887 103.561 44.521
1,115.915 103.561 44.097
1,124.001 103.550 43.672
1,132.146 103.531 43.281
1,140.350 103.508 42.922
1,148.614 103.477 42.574
1,156.937 103.438 42.247
1,165.321 103.389 41.954
1,173.765 103.330 41.727
1,182.271 103.268 41.588
1,190.838 103.206 41.505
1,199.467 103.139 41.449
1,208.159 103.066 41.459
1,216.914 102.989 41.559
1,225.732 102.913 41.748
1,234.614 102.841 42.009
1,243.561 102.773 42.329
1,252.572 102.709 42.706
1,261.649 102.647 43.150
1,270.791 102.589 43.664
1,280.000 102.538 44.242
1,289.275 102.498 44.877
1,298.618 102.470 45.549
1,308.028 102.454 46.241
1,317.507 102.448 46.945
1,327.054 102.451 47.648
1,336.670 102.462 48.346
1,346.357 102.481 49.045
1,356.113 102.511 49.725
1,365.940 102.548 50.370
1,375.838 102.590 50.987
1,385.808 102.635 51.578
1,395.850 102.683 52.147
1,405.965 102.735 52.707
1,416.153 102.791 53.251
1,426.415 102.853 53.762
1,436.751 102.918 54.240
1,447.163 102.987 54.694
1,457.649 103.062 55.105
1,468.212 103.138 55.457
1,478.851 103.212 55.762
1,489.568 103.287 56.027
1,500.362 103.362 56.238
1,511.234 103.434 56.380
1,522.185 103.496 56.456
1,533.215 103.545 56.499
1,544.326 103.582 56.548
1,555.517 103.611 56.614
1,566.789 103.630 56.698
1,578.142 103.635 56.840
1,589.578 103.634 57.084
1,601.097 103.636 57.415
1,612.699 103.644 57.795
1,624.385 103.654 58.210
1,636.156 103.668 58.664
1,648.012 103.687 59.146
1,659.955 103.711 59.645
1,671.983 103.741 60.149
1,684.099 103.774 60.645
1,696.303 103.809 61.144
1,708.595 103.846 61.650
1,720.976 103.885 62.155
1,733.447 103.924 62.659
1,746.008 103.962 63.166
1,758.661 103.999 63.697
1,771.405 104.041 64.245
1,784.241 104.083 64.797
1,797.170 104.126 65.365
1,810.193 104.169 65.946
1,823.311 104.213 66.551
1,836.523 104.258 67.187
1,849.831 104.304 67.846
1,863.236 104.349 68.540
1,876.738 104.396 69.285
1,890.338 104.447 70.089
1,904.036 104.505 70.930
1,917.833 104.568 71.804
1,931.730 104.636 72.739
1,945.729 104.713 73.730
1,959.828 104.802 74.761
1,974.030 104.904 75.822
1,988.334 105.020 76.928
2,002.743 105.155 78.053
2,017.255 105.306 79.170
2,031.873 105.474 80.268
2,046.597 105.658 81.335
2,061.428 105.858 82.355
2,076.365 106.073 83.312
2,091.412 106.302 84.211
2,106.567 106.548 85.041
2,121.832 106.807 85.773
2,137.208 107.076 86.406
2,152.695 107.358 86.926
2,168.294 107.649 87.299
2,184.007 107.942 87.517
2,199.833 108.236 87.617
2,215.774 108.531 87.594
2,231.830 108.822 87.427
2,248.003 109.109 87.119
2,264.293 109.388 86.658
2,280.701 109.649 86.043
2,297.228 109.886 85.310
2,313.874 110.091 84.531
2,330.642 110.263 83.798
2,347.530 110.407 83.226
2,364.542 110.542 82.896
2,381.676 110.692 82.821
2,398.935 110.882 82.912
2,416.318 111.119 82.998
2,433.828 111.396 82.929
2,451.464 111.695 82.637
2,469.229 112.007 82.119
2,487.122 112.328 81.364
2,505.145 112.651 80.314
2,523.298 112.960 78.955
2,541.583 113.241 77.330
2,560.000 113.485 75.508
2,578.551 113.689 73.576
2,597.236 113.857 71.604
2,616.057 113.992 69.632
2,635.014 114.101 67.693
2,654.108 114.190 65.786
2,673.341 114.262 63.880
2,692.713 114.314 61.953
2,712.226 114.342 60.016
2,731.879 114.343 58.083
2,751.676 114.315 56.175
2,771.615 114.258 54.332
2,791.700 114.170 52.585
2,811.930 114.051 50.957
2,832.306 113.902 49.488
2,852.830 113.728 48.220
2,873.503 113.535 47.188
2,894.325 113.327 46.422
2,915.299 113.109 45.947
2,936.424 112.888 45.775
2,957.703 112.671 45.910
2,979.136 112.467 46.350
3,000.724 112.283 47.084
3,022.468 112.127 48.098
3,044.370 112.010 49.368
3,066.431 111.939 50.855
3,088.652 111.923 52.504
3,111.033 111.967 54.238
3,133.577 112.073 55.982
3,156.284 112.242 57.652
3,179.156 112.472 59.161
3,202.193 112.756 60.432
3,225.398 113.088 61.398
3,248.771 113.456 61.989
3,272.312 113.844 62.140
3,296.025 114.235 61.837
3,319.909 114.614 61.097
3,343.967 114.967 59.957
3,368.198 115.286 58.486
3,392.606 115.558 56.767
3,417.190 115.780 54.874
3,441.952 115.949 52.880
3,466.894 116.065 50.873
3,492.017 116.134 48.932
3,517.321 116.161 47.122
3,542.809 116.155 45.500
3,568.482 116.124 44.110
3,594.341 116.078 42.961
3,620.387 116.023 42.051
3,646.622 115.968 41.375
3,673.046 115.922 40.915
3,699.663 115.893 40.647
3,726.472 115.888 40.544
3,753.476 115.912 40.560
3,780.675 115.966 40.642
3,808.071 116.049 40.739
3,835.666 116.157 40.813
3,863.461 116.286 40.846
3,891.457 116.432 40.835
3,919.656 116.595 40.782
3,948.060 116.776 40.696
3,976.669 116.977 40.579
4,005.486 117.199 40.412
4,034.511 117.446 40.193
4,063.747 117.725 39.900
4,093.194 118.043 39.485
4,122.855 118.401 38.891
4,152.731 118.792 38.029
4,182.824 119.211 36.817
4,213.134 119.652 35.202
4,243.664 120.100 33.101
4,274.416 120.524 30.503
4,305.390 120.905 27.445
4,336.588 121.218 23.886
4,368.013 121.450 19.819
4,399.666 121.613 15.307
4,431.547 121.719 10.463
4,463.660 121.771 5.376
4,496.005 121.780 0.122
4,528.585 121.754 -5.155
4,561.401 121.695 -10.309
4,594.455 121.595 -15.192
4,627.749 121.454 -19.711
4,661.283 121.273 -23.919
4,695.061 121.038 -27.908
4,729.083 120.746 -31.675
4,763.352 120.398 -35.179
4,797.869 119.998 -38.489
4,832.637 119.563 -41.679
4,867.656 119.108 -44.705
4,902.929 118.633 -47.532
4,938.458 118.138 -50.149
4,974.244 117.625 -52.549
5,010.289 117.094 -54.731
5,046.596 116.549 -56.677
5,083.166 115.991 -58.371
5,120.000 115.425 -59.810
5,157.102 114.858 -60.996
5,194.472 114.294 -61.924
5,232.113 113.737 -62.605
5,270.027 113.191 -63.073
5,308.216 112.658 -63.348
5,346.682 112.141 -63.449
5,385.426 111.644 -63.407
5,424.451 111.166 -63.242
5,463.759 110.707 -62.985
5,503.352 110.266 -62.666
5,543.231 109.843 -62.313
5,583.399 109.433 -61.961
5,623.859 109.030 -61.635
5,664.612 108.630 -61.340
5,705.660 108.228 -61.072
5,747.006 107.816 -60.807
5,788.651 107.386 -60.500
5,830.598 106.936 -60.098
5,872.849 106.466 -59.534
5,915.406 105.978 -58.750
5,958.271 105.484 -57.686
6,001.447 104.995 -56.304
6,044.937 104.519 -54.613
6,088.740 104.066 -52.655
6,132.862 103.644 -50.483
6,177.303 103.254 -48.149
6,222.066 102.897 -45.687
6,267.154 102.572 -43.103
6,312.568 102.286 -40.404
6,358.312 102.042 -37.611
6,404.387 101.839 -34.774
6,450.796 101.676 -31.949
6,497.541 101.548 -29.167
6,544.625 101.456 -26.436
6,592.050 101.403 -23.758
6,639.818 101.390 -21.151
6,687.934 101.415 -18.677
6,736.397 101.474 -16.415
6,785.211 101.558 -14.424
6,834.380 101.655 -12.711
6,883.905 101.759 -11.254
6,933.789 101.858 -10.028
6,984.034 101.944 -9.012
7,034.643 102.009 -8.157
7,085.619 102.052 -7.398
7,136.964 102.076 -6.688
7,188.681 102.083 -5.995
7,240.773 102.080 -5.291
7,293.243 102.074 -4.562
7,346.093 102.066 -3.817
7,399.326 102.053 -3.089
7,452.944 102.033 -2.377
7,506.951 102.009 -1.652
7,561.350 101.983 -0.884
7,616.143 101.954 -0.071
7,671.332 101.923 0.774
7,726.922 101.893 1.641
7,782.915 101.861 2.516
7,839.312 101.827 3.411
7,896.120 101.794 4.359
7,953.338 101.765 5.394
8,010.971 101.741 6.527
8,069.022 101.729 7.736
8,127.493 101.729 8.967
8,186.389 101.740 10.198
8,245.711 101.770 11.443
8,305.462 101.820 12.720
8,365.647 101.885 14.001
8,426.268 101.967 15.257
8,487.328 102.063 16.474
8,548.831 102.175 17.637
8,610.779 102.299 18.727
8,673.177 102.436 19.758
8,736.026 102.591 20.758
8,799.331 102.766 21.732
8,863.095 102.962 22.644
8,927.320 103.180 23.451
8,992.011 103.421 24.109
9,057.171 103.681 24.570
9,122.803 103.957 24.812
9,188.910 104.250 24.836
9,255.497 104.553 24.631
9,322.566 104.863 24.178
9,390.121 105.175 23.428
9,458.166 105.477 22.309
9,526.704 105.761 20.822
9,595.738 106.025 19.035
9,665.273 106.260 16.997
9,735.312 106.458 14.716
9,805.857 106.616 12.200
9,876.915 106.732 9.459
9,948.487 106.801 6.492
10,020.578 106.816 3.320
10,093.191 106.770 -0.005
10,166.331 106.655 -3.418
10,240.000 106.460 -6.847
10,314.203 106.176 -10.191
10,388.944 105.798 -13.301
10,464.227 105.334 -15.990
10,540.055 104.809 -18.095
10,616.433 104.250 -19.573
10,693.363 103.680 -20.467
10,770.853 103.122 -20.825
10,848.902 102.586 -20.730
10,927.518 102.078 -20.266
11,006.703 101.611 -19.460
11,086.462 101.193 -18.396
11,166.799 100.819 -17.207
11,247.719 100.486 -15.951
11,329.224 100.194 -14.643
11,411.320 99.937 -13.337
11,494.012 99.707 -12.116
11,577.302 99.494 -11.016
11,661.195 99.291 -10.006
11,745.697 99.089 -9.039
11,830.812 98.881 -8.077
11,916.543 98.668 -7.074
12,002.895 98.453 -5.993
12,089.873 98.240 -4.812
12,177.480 98.040 -3.491
12,265.724 97.857 -2.022
12,354.606 97.699 -0.432
12,444.133 97.577 1.240
12,534.309 97.498 2.905
12,625.137 97.461 4.446
12,716.624 97.459 5.779
12,808.773 97.490 6.865
12,901.592 97.545 7.648
12,995.082 97.605 8.028
13,089.250 97.648 7.918
13,184.100 97.641 7.281
13,279.637 97.540 6.180
13,375.867 97.300 4.845
13,472.794 96.887 3.765
13,570.423 96.308 3.659
13,668.760 95.626 5.193
13,767.810 94.959 8.610
13,867.577 94.448 13.568
13,968.067 94.204 19.411
14,069.285 94.267 25.431
14,171.237 94.579 30.943
14,273.928 95.061 35.549
14,377.362 95.657 39.215
14,481.547 96.328 41.973
14,586.486 97.049 43.794
14,692.186 97.813 44.711
14,798.651 98.618 44.744
14,905.889 99.439 43.734
15,013.902 100.237 41.468
15,122.700 100.957 37.836
15,232.285 101.535 32.894
15,342.664 101.910 26.938
15,453.844 102.054 20.528
15,565.829 101.976 14.303
15,678.625 101.710 8.726
15,792.239 101.313 4.000
15,906.676 100.839 0.072
16,021.942 100.313 -3.179
16,138.044 99.749 -5.651
16,254.986 99.191 -7.257
16,372.777 98.679 -8.227
16,491.422 98.223 -8.849
16,610.924 97.816 -9.276
16,731.295 97.446 -9.564
16,852.535 97.109 -9.753
16,974.656 96.809 -9.877
17,097.662 96.556 -9.925
17,221.559 96.364 -9.927
17,346.354 96.238 -10.040
17,472.053 96.175 -10.471
17,598.662 96.163 -11.423
17,726.189 96.179 -13.060
17,854.641 96.196 -15.440
17,984.021 96.179 -18.601
18,114.342 96.079 -22.620
18,245.605 95.841 -27.365
18,377.820 95.430 -32.430
18,510.994 94.828 -37.353
18,645.133 94.047 -41.702
18,780.242 93.129 -45.084
18,916.332 92.131 -47.290
19,053.408 91.108 -48.323
19,191.477 90.118 -48.340
19,330.547 89.210 -47.636
19,470.623 88.408 -46.592
19,611.715 87.711 -45.526
19,753.830 87.112 -44.589
19,896.975 86.645 -43.902
