* Measurement data measured by REW V5.20 Beta 4
* Source: Microphone (E.A.R.S Gain: 18dB  ), no input selected, R, volume: no control
* Format: 256k Log Swept Sine, 1 sweep at -8.0 dBFS  With no timing reference
* Dated: Jan 28, 2019 11:21:24 AM
* REW Settings:
*  C-weighting compensation: Off
*  Target level: 75.0 dB
* Note: ; 
* Measurement: B&O BEOPLAY H8 R
* Smoothing: 1/48 octave
* Frequency Step: 1/96 octave
* Start Frequency: 20.1 Hz
*
* Freq(Hz) SPL(dB) Phase(degrees)
20.145 84.796 -44.197
20.291 84.853 -44.358
20.438 84.910 -44.622
20.586 84.993 -45.032
20.735 85.126 -45.604
20.885 85.258 -46.175
21.037 85.376 -46.681
21.189 85.489 -47.165
21.343 85.598 -47.626
21.497 85.703 -48.065
21.653 85.809 -48.507
21.810 85.917 -48.956
21.968 86.024 -49.404
22.127 86.131 -49.848
22.288 86.237 -50.290
22.449 86.342 -50.729
22.612 86.447 -51.167
22.776 86.552 -51.607
22.941 86.657 -52.051
23.107 86.761 -52.499
23.274 86.865 -52.949
23.443 86.968 -53.405
23.613 87.070 -53.866
23.784 87.172 -54.333
23.956 87.272 -54.807
24.130 87.371 -55.288
24.305 87.469 -55.775
24.481 87.565 -56.268
24.658 87.660 -56.766
24.837 87.752 -57.270
25.017 87.843 -57.777
25.198 87.932 -58.287
25.381 88.018 -58.799
25.565 88.102 -59.311
25.750 88.184 -59.821
25.937 88.264 -60.329
26.125 88.342 -60.832
26.314 88.418 -61.331
26.505 88.492 -61.822
26.697 88.564 -62.305
26.890 88.635 -62.779
27.085 88.705 -63.245
27.281 88.773 -63.700
27.479 88.841 -64.147
27.678 88.909 -64.584
27.879 88.976 -65.012
28.081 89.043 -65.433
28.284 89.110 -65.846
28.489 89.178 -66.254
28.696 89.245 -66.656
28.904 89.312 -67.053
29.113 89.380 -67.446
29.324 89.448 -67.835
29.537 89.516 -68.222
29.751 89.584 -68.605
29.966 89.653 -68.985
30.183 89.722 -69.363
30.402 89.792 -69.739
30.622 89.862 -70.114
30.844 89.932 -70.489
31.068 90.004 -70.864
31.293 90.076 -71.242
31.520 90.149 -71.625
31.748 90.222 -72.012
31.978 90.296 -72.408
32.210 90.370 -72.811
32.443 90.444 -73.224
32.678 90.517 -73.647
32.915 90.589 -74.078
33.154 90.660 -74.517
33.394 90.730 -74.962
33.636 90.798 -75.412
33.880 90.865 -75.864
34.125 90.930 -76.317
34.372 90.993 -76.768
34.621 91.055 -77.215
34.872 91.117 -77.660
35.125 91.177 -78.100
35.380 91.237 -78.538
35.636 91.297 -78.974
35.894 91.356 -79.410
36.154 91.415 -79.847
36.416 91.473 -80.286
36.680 91.530 -80.729
36.946 91.586 -81.174
37.214 91.641 -81.620
37.483 91.693 -82.065
37.755 91.744 -82.505
38.029 91.792 -82.936
38.304 91.840 -83.356
38.582 91.886 -83.760
38.861 91.931 -84.147
39.143 91.977 -84.516
39.427 92.024 -84.868
39.712 92.073 -85.205
40.000 92.125 -85.533
40.290 92.180 -85.857
40.582 92.238 -86.183
40.876 92.299 -86.519
41.172 92.362 -86.872
41.470 92.427 -87.247
41.771 92.492 -87.648
42.074 92.555 -88.076
42.379 92.616 -88.528
42.686 92.673 -88.996
42.995 92.724 -89.470
43.306 92.771 -89.936
43.620 92.812 -90.382
43.936 92.849 -90.793
44.255 92.885 -91.159
44.575 92.922 -91.477
44.898 92.964 -91.754
45.224 93.012 -92.003
45.552 93.069 -92.244
45.882 93.134 -92.502
46.214 93.207 -92.801
46.549 93.283 -93.159
46.886 93.358 -93.585
47.226 93.429 -94.076
47.568 93.490 -94.615
47.913 93.541 -95.176
48.260 93.579 -95.729
48.610 93.607 -96.245
48.962 93.626 -96.698
49.317 93.641 -97.074
49.674 93.656 -97.370
50.034 93.675 -97.592
50.397 93.701 -97.757
50.762 93.737 -97.888
51.130 93.782 -98.006
51.500 93.836 -98.133
51.874 93.897 -98.283
52.249 93.963 -98.466
52.628 94.032 -98.686
53.009 94.102 -98.942
53.394 94.173 -99.229
53.781 94.242 -99.544
54.170 94.309 -99.882
54.563 94.375 -100.238
54.958 94.438 -100.610
55.356 94.499 -100.996
55.758 94.557 -101.392
56.162 94.611 -101.795
56.569 94.662 -102.197
56.978 94.710 -102.592
57.391 94.754 -102.975
57.807 94.797 -103.340
58.226 94.839 -103.688
58.648 94.881 -104.020
59.073 94.924 -104.341
59.501 94.967 -104.653
59.932 95.010 -104.961
60.367 95.054 -105.267
60.804 95.098 -105.571
61.245 95.142 -105.874
61.688 95.185 -106.174
62.135 95.226 -106.468
62.586 95.267 -106.756
63.039 95.307 -107.032
63.496 95.347 -107.295
63.956 95.387 -107.543
64.420 95.427 -107.776
64.886 95.469 -107.996
65.357 95.514 -108.206
65.830 95.560 -108.412
66.307 95.609 -108.617
66.788 95.660 -108.825
67.272 95.714 -109.041
67.759 95.770 -109.271
68.250 95.828 -109.520
68.745 95.887 -109.795
69.243 95.947 -110.102
69.745 96.005 -110.442
70.250 96.059 -110.813
70.759 96.109 -111.204
71.272 96.153 -111.604
71.788 96.192 -111.999
72.309 96.228 -112.378
72.833 96.261 -112.736
73.360 96.293 -113.073
73.892 96.327 -113.392
74.427 96.362 -113.701
74.967 96.398 -114.006
75.510 96.437 -114.312
76.057 96.477 -114.623
76.608 96.518 -114.944
77.163 96.559 -115.275
77.723 96.601 -115.619
78.286 96.641 -115.972
78.853 96.679 -116.330
79.424 96.715 -116.687
80.000 96.750 -117.037
80.580 96.783 -117.376
81.164 96.816 -117.702
81.752 96.850 -118.014
82.344 96.885 -118.317
82.941 96.922 -118.614
83.542 96.961 -118.912
84.147 97.002 -119.217
84.757 97.044 -119.537
85.371 97.087 -119.872
85.990 97.128 -120.221
86.613 97.169 -120.581
87.241 97.209 -120.948
87.873 97.247 -121.322
88.510 97.284 -121.703
89.151 97.318 -122.088
89.797 97.349 -122.469
90.448 97.377 -122.833
91.103 97.403 -123.169
91.763 97.430 -123.472
92.428 97.459 -123.748
93.098 97.493 -124.008
93.773 97.531 -124.267
94.452 97.572 -124.539
95.137 97.615 -124.828
95.826 97.658 -125.134
96.520 97.699 -125.452
97.220 97.738 -125.776
97.924 97.776 -126.099
98.634 97.812 -126.417
99.349 97.847 -126.732
100.069 97.883 -127.046
100.794 97.917 -127.358
101.524 97.950 -127.666
102.260 97.983 -127.962
103.001 98.018 -128.248
103.747 98.057 -128.533
104.499 98.099 -128.837
105.256 98.143 -129.179
106.019 98.185 -129.565
106.787 98.221 -129.986
107.561 98.249 -130.417
108.340 98.269 -130.825
109.126 98.285 -131.187
109.916 98.301 -131.496
110.713 98.321 -131.767
111.515 98.348 -132.030
112.323 98.380 -132.314
113.137 98.413 -132.631
113.957 98.443 -132.974
114.783 98.470 -133.323
115.614 98.494 -133.662
116.452 98.518 -133.984
117.296 98.542 -134.295
118.146 98.569 -134.606
119.002 98.597 -134.921
119.865 98.625 -135.242
120.733 98.654 -135.569
121.608 98.682 -135.902
122.489 98.710 -136.241
123.377 98.737 -136.582
124.271 98.762 -136.919
125.171 98.788 -137.251
126.078 98.815 -137.583
126.992 98.842 -137.926
127.912 98.869 -138.289
128.839 98.894 -138.671
129.773 98.916 -139.062
130.713 98.935 -139.451
131.660 98.952 -139.832
132.615 98.969 -140.210
133.575 98.986 -140.589
134.543 99.003 -140.966
135.518 99.021 -141.346
136.500 99.039 -141.737
137.490 99.057 -142.143
138.486 99.072 -142.555
139.489 99.085 -142.961
140.500 99.097 -143.356
141.518 99.109 -143.742
142.544 99.121 -144.124
143.577 99.133 -144.506
144.617 99.145 -144.893
145.665 99.156 -145.286
146.721 99.166 -145.684
147.784 99.174 -146.086
148.855 99.180 -146.483
149.933 99.185 -146.876
151.020 99.191 -147.273
152.114 99.195 -147.687
153.217 99.196 -148.112
154.327 99.192 -148.525
155.445 99.185 -148.915
156.572 99.179 -149.282
157.706 99.173 -149.639
158.849 99.168 -149.994
160.000 99.162 -150.350
161.159 99.155 -150.708
162.327 99.147 -151.067
163.504 99.135 -151.423
164.688 99.120 -151.760
165.882 99.106 -152.068
167.084 99.096 -152.371
168.295 99.087 -152.705
169.514 99.072 -153.064
170.742 99.051 -153.407
171.980 99.027 -153.703
173.226 99.006 -153.966
174.481 98.990 -154.233
175.746 98.974 -154.520
177.019 98.954 -154.810
178.302 98.931 -155.070
179.594 98.911 -155.300
180.895 98.895 -155.530
182.206 98.882 -155.796
183.527 98.862 -156.090
184.856 98.835 -156.363
186.196 98.806 -156.575
187.545 98.784 -156.741
188.904 98.768 -156.910
190.273 98.756 -157.105
191.652 98.744 -157.322
193.041 98.730 -157.554
194.440 98.710 -157.792
195.849 98.685 -158.001
197.268 98.658 -158.148
198.697 98.637 -158.247
200.137 98.625 -158.354
201.587 98.615 -158.505
203.048 98.601 -158.683
204.520 98.582 -158.851
206.002 98.562 -158.996
207.494 98.543 -159.128
208.998 98.525 -159.246
210.512 98.511 -159.355
212.038 98.500 -159.475
213.574 98.491 -159.621
215.122 98.481 -159.781
216.681 98.469 -159.943
218.251 98.456 -160.113
219.833 98.440 -160.290
221.426 98.419 -160.440
223.030 98.398 -160.557
224.646 98.379 -160.663
226.274 98.361 -160.764
227.914 98.342 -160.858
229.565 98.325 -160.955
231.229 98.306 -161.058
232.905 98.285 -161.150
234.592 98.265 -161.224
236.292 98.245 -161.299
238.004 98.224 -161.376
239.729 98.201 -161.420
241.466 98.186 -161.432
243.216 98.179 -161.485
244.979 98.171 -161.605
246.754 98.157 -161.751
248.542 98.140 -161.896
250.343 98.120 -162.027
252.157 98.100 -162.151
253.984 98.077 -162.248
255.825 98.059 -162.299
257.678 98.048 -162.342
259.546 98.043 -162.411
261.426 98.039 -162.504
263.321 98.035 -162.627
265.229 98.025 -162.758
267.151 98.013 -162.852
269.087 98.005 -162.930
271.037 97.999 -163.036
273.001 97.991 -163.172
274.979 97.976 -163.309
276.972 97.961 -163.425
278.979 97.947 -163.535
281.000 97.935 -163.657
283.037 97.923 -163.793
285.088 97.909 -163.927
287.153 97.898 -164.073
289.234 97.885 -164.251
291.330 97.866 -164.437
293.441 97.844 -164.598
295.568 97.825 -164.742
297.710 97.808 -164.891
299.867 97.794 -165.067
302.040 97.779 -165.294
304.228 97.757 -165.557
306.433 97.728 -165.833
308.654 97.696 -166.115
310.890 97.660 -166.406
313.143 97.620 -166.716
315.412 97.571 -167.033
317.698 97.511 -167.308
320.000 97.446 -167.513
322.319 97.379 -167.667
324.655 97.309 -167.777
327.007 97.240 -167.848
329.377 97.171 -167.909
331.764 97.095 -167.936
334.168 97.020 -167.893
336.589 96.949 -167.800
339.028 96.887 -167.692
341.485 96.829 -167.607
343.959 96.771 -167.526
346.452 96.717 -167.455
348.962 96.663 -167.402
351.491 96.607 -167.344
354.038 96.550 -167.278
356.604 96.491 -167.201
359.188 96.432 -167.101
361.791 96.374 -166.998
364.412 96.313 -166.894
367.053 96.248 -166.765
369.713 96.180 -166.593
372.392 96.117 -166.376
375.090 96.064 -166.163
377.809 96.014 -166.026
380.546 95.954 -165.924
383.304 95.888 -165.782
386.081 95.821 -165.592
388.879 95.757 -165.388
391.697 95.693 -165.224
394.536 95.616 -165.076
397.395 95.530 -164.857
400.274 95.449 -164.571
403.175 95.374 -164.302
406.096 95.292 -164.057
409.039 95.199 -163.710
412.003 95.117 -163.211
414.989 95.055 -162.698
417.996 94.993 -162.211
421.025 94.926 -161.678
424.076 94.860 -161.094
427.149 94.799 -160.463
430.244 94.749 -159.823
433.362 94.706 -159.206
436.502 94.666 -158.619
439.665 94.626 -158.035
442.851 94.588 -157.436
446.060 94.554 -156.847
449.293 94.520 -156.259
452.548 94.487 -155.654
455.828 94.457 -155.040
459.131 94.428 -154.420
462.458 94.400 -153.790
465.809 94.373 -153.151
469.184 94.346 -152.482
472.584 94.324 -151.786
476.009 94.305 -151.085
479.458 94.290 -150.393
482.933 94.275 -149.722
486.432 94.260 -149.041
489.957 94.250 -148.318
493.507 94.250 -147.602
497.084 94.253 -146.921
500.686 94.254 -146.249
504.314 94.256 -145.581
507.968 94.260 -144.908
511.649 94.268 -144.213
515.357 94.282 -143.507
519.091 94.298 -142.803
522.853 94.313 -142.101
526.642 94.329 -141.397
530.458 94.348 -140.724
534.302 94.364 -140.074
538.174 94.379 -139.388
542.074 94.402 -138.657
546.002 94.436 -137.932
549.958 94.475 -137.252
553.943 94.514 -136.615
557.958 94.548 -135.983
562.001 94.581 -135.318
566.073 94.619 -134.642
570.175 94.658 -133.989
574.307 94.696 -133.349
578.469 94.736 -132.696
582.660 94.785 -132.054
586.883 94.839 -131.478
591.135 94.892 -130.934
595.419 94.944 -130.379
599.734 95.000 -129.796
604.080 95.061 -129.218
608.457 95.120 -128.680
612.866 95.174 -128.144
617.307 95.229 -127.587
621.780 95.285 -127.031
626.286 95.339 -126.476
630.824 95.395 -125.930
635.396 95.453 -125.407
640.000 95.512 -124.895
644.638 95.572 -124.380
649.309 95.634 -123.863
654.014 95.694 -123.344
658.753 95.757 -122.814
663.527 95.825 -122.287
668.335 95.898 -121.789
673.178 95.972 -121.313
678.056 96.047 -120.845
682.970 96.123 -120.397
687.919 96.199 -119.969
692.904 96.274 -119.553
697.925 96.348 -119.146
702.982 96.421 -118.745
708.076 96.491 -118.350
713.208 96.563 -117.953
718.376 96.635 -117.559
723.581 96.708 -117.165
728.825 96.783 -116.776
734.106 96.860 -116.410
739.426 96.938 -116.066
744.784 97.015 -115.718
750.181 97.095 -115.370
755.617 97.176 -115.042
761.093 97.256 -114.735
766.608 97.334 -114.438
772.163 97.412 -114.145
777.758 97.490 -113.862
783.394 97.566 -113.607
789.071 97.640 -113.372
794.789 97.711 -113.139
800.548 97.782 -112.908
806.349 97.853 -112.697
812.193 97.922 -112.497
818.078 97.987 -112.285
824.006 98.050 -112.058
829.977 98.113 -111.824
835.992 98.176 -111.592
842.050 98.237 -111.358
848.151 98.298 -111.115
854.297 98.359 -110.865
860.488 98.421 -110.620
866.724 98.482 -110.370
873.004 98.542 -110.116
879.330 98.602 -109.854
885.702 98.661 -109.586
892.120 98.721 -109.317
898.585 98.780 -109.044
905.097 98.839 -108.759
911.655 98.898 -108.459
918.262 98.959 -108.142
924.916 99.020 -107.807
931.618 99.084 -107.466
938.369 99.152 -107.126
945.169 99.223 -106.781
952.018 99.298 -106.432
958.917 99.375 -106.091
965.865 99.455 -105.768
972.864 99.538 -105.471
979.914 99.623 -105.204
987.015 99.708 -104.953
994.167 99.796 -104.713
1,001.371 99.885 -104.495
1,008.628 99.972 -104.298
1,015.937 100.056 -104.128
1,023.299 100.139 -103.977
1,030.714 100.220 -103.835
1,038.183 100.299 -103.705
1,045.706 100.376 -103.584
1,053.283 100.452 -103.469
1,060.916 100.524 -103.361
1,068.604 100.593 -103.255
1,076.347 100.662 -103.153
1,084.147 100.727 -103.061
1,092.003 100.789 -102.962
1,099.916 100.849 -102.846
1,107.887 100.907 -102.721
1,115.915 100.965 -102.588
1,124.001 101.020 -102.443
1,132.146 101.073 -102.279
1,140.350 101.125 -102.093
1,148.614 101.176 -101.887
1,156.937 101.228 -101.657
1,165.321 101.282 -101.401
1,173.765 101.338 -101.126
1,182.271 101.398 -100.842
1,190.838 101.463 -100.559
1,199.467 101.530 -100.287
1,208.159 101.599 -100.031
1,216.914 101.669 -99.789
1,225.732 101.739 -99.562
1,234.614 101.808 -99.347
1,243.561 101.875 -99.132
1,252.572 101.941 -98.911
1,261.649 102.005 -98.682
1,270.791 102.070 -98.442
1,280.000 102.135 -98.194
1,289.275 102.203 -97.945
1,298.618 102.272 -97.695
1,308.028 102.341 -97.448
1,317.507 102.410 -97.220
1,327.054 102.475 -97.016
1,336.670 102.535 -96.811
1,346.357 102.588 -96.576
1,356.113 102.638 -96.281
1,365.940 102.689 -95.914
1,375.838 102.745 -95.483
1,385.808 102.810 -95.005
1,395.850 102.886 -94.501
1,405.965 102.974 -93.999
1,416.153 103.071 -93.527
1,426.415 103.176 -93.100
1,436.751 103.285 -92.727
1,447.163 103.396 -92.416
1,457.649 103.505 -92.160
1,468.212 103.605 -91.927
1,478.851 103.701 -91.657
1,489.568 103.802 -91.375
1,500.362 103.904 -91.128
1,511.234 104.003 -90.893
1,522.185 104.100 -90.651
1,533.215 104.197 -90.400
1,544.326 104.295 -90.133
1,555.517 104.393 -89.850
1,566.789 104.494 -89.557
1,578.142 104.600 -89.265
1,589.578 104.709 -88.978
1,601.097 104.821 -88.702
1,612.699 104.937 -88.436
1,624.385 105.055 -88.192
1,636.156 105.175 -87.975
1,648.012 105.293 -87.782
1,659.955 105.411 -87.601
1,671.983 105.529 -87.425
1,684.099 105.647 -87.255
1,696.303 105.765 -87.093
1,708.595 105.882 -86.936
1,720.976 105.998 -86.775
1,733.447 106.114 -86.605
1,746.008 106.232 -86.434
1,758.661 106.352 -86.260
1,771.405 106.477 -86.080
1,784.241 106.607 -85.902
1,797.170 106.739 -85.743
1,810.193 106.873 -85.613
1,823.311 107.007 -85.509
1,836.523 107.141 -85.414
1,849.831 107.276 -85.325
1,863.236 107.411 -85.249
1,876.738 107.548 -85.191
1,890.338 107.685 -85.144
1,904.036 107.822 -85.096
1,917.833 107.961 -85.055
1,931.730 108.101 -85.030
1,945.729 108.243 -85.010
1,959.828 108.386 -84.993
1,974.030 108.532 -84.989
1,988.334 108.680 -85.008
2,002.743 108.828 -85.053
2,017.255 108.975 -85.113
2,031.873 109.124 -85.176
2,046.597 109.274 -85.249
2,061.428 109.428 -85.336
2,076.365 109.582 -85.431
2,091.412 109.738 -85.538
2,106.567 109.897 -85.660
2,121.832 110.059 -85.801
2,137.208 110.226 -85.970
2,152.695 110.397 -86.173
2,168.294 110.571 -86.421
2,184.007 110.747 -86.714
2,199.833 110.925 -87.059
2,215.774 111.102 -87.468
2,231.830 111.275 -87.935
2,248.003 111.443 -88.450
2,264.293 111.609 -89.012
2,280.701 111.773 -89.625
2,297.228 111.934 -90.289
2,313.874 112.088 -90.991
2,330.642 112.234 -91.726
2,347.530 112.372 -92.492
2,364.542 112.501 -93.276
2,381.676 112.620 -94.066
2,398.935 112.731 -94.857
2,416.318 112.833 -95.633
2,433.828 112.929 -96.373
2,451.464 113.022 -97.075
2,469.229 113.113 -97.749
2,487.122 113.203 -98.400
2,505.145 113.292 -99.026
2,523.298 113.385 -99.632
2,541.583 113.481 -100.241
2,560.000 113.580 -100.864
2,578.551 113.682 -101.499
2,597.236 113.786 -102.157
2,616.057 113.890 -102.864
2,635.014 113.991 -103.626
2,654.108 114.087 -104.437
2,673.341 114.177 -105.293
2,692.713 114.257 -106.173
2,712.226 114.326 -107.045
2,731.879 114.386 -107.892
2,751.676 114.438 -108.717
2,771.615 114.482 -109.493
2,791.700 114.525 -110.201
2,811.930 114.573 -110.879
2,832.306 114.624 -111.571
2,852.830 114.675 -112.274
2,873.503 114.723 -112.965
2,894.325 114.770 -113.657
2,915.299 114.811 -114.354
2,936.424 114.850 -115.020
2,957.703 114.891 -115.683
2,979.136 114.934 -116.386
3,000.724 114.971 -117.112
3,022.468 114.997 -117.811
3,044.370 115.016 -118.440
3,066.431 115.038 -118.988
3,088.652 115.072 -119.506
3,111.033 115.114 -120.069
3,133.577 115.153 -120.701
3,156.284 115.184 -121.358
3,179.156 115.210 -121.988
3,202.193 115.235 -122.596
3,225.398 115.258 -123.207
3,248.771 115.277 -123.827
3,272.312 115.290 -124.434
3,296.025 115.300 -125.012
3,319.909 115.309 -125.569
3,343.967 115.317 -126.108
3,368.198 115.321 -126.632
3,392.606 115.320 -127.140
3,417.190 115.310 -127.609
3,441.952 115.298 -128.007
3,466.894 115.288 -128.358
3,492.017 115.280 -128.681
3,517.321 115.274 -128.962
3,542.809 115.264 -129.191
3,568.482 115.251 -129.349
3,594.341 115.241 -129.413
3,620.387 115.238 -129.394
3,646.622 115.243 -129.308
3,673.046 115.259 -129.166
3,699.663 115.287 -128.979
3,726.472 115.327 -128.749
3,753.476 115.379 -128.465
3,780.675 115.444 -128.137
3,808.071 115.525 -127.786
3,835.666 115.621 -127.421
3,863.461 115.735 -127.049
3,891.457 115.869 -126.676
3,919.656 116.026 -126.302
3,948.060 116.205 -125.945
3,976.669 116.409 -125.643
4,005.486 116.639 -125.444
4,034.511 116.888 -125.385
4,063.747 117.153 -125.473
4,093.194 117.429 -125.694
4,122.855 117.717 -126.021
4,152.731 118.020 -126.452
4,182.824 118.338 -127.019
4,213.134 118.672 -127.752
4,243.664 119.019 -128.675
4,274.416 119.378 -129.813
4,305.390 119.748 -131.185
4,336.588 120.125 -132.837
4,368.013 120.492 -134.809
4,399.666 120.831 -137.071
4,431.547 121.126 -139.651
4,463.660 121.366 -142.612
4,496.005 121.554 -145.943
4,528.585 121.705 -149.552
4,561.401 121.818 -153.396
4,594.455 121.896 -157.541
4,627.749 121.949 -162.013
4,661.283 121.978 -166.775
4,695.061 121.983 -171.768
4,729.083 121.960 -176.886
4,763.352 121.909 178.014
4,797.869 121.822 173.017
4,832.637 121.683 168.281
4,867.656 121.496 163.990
4,902.929 121.252 160.215
4,938.458 120.929 156.916
4,974.244 120.531 154.038
5,010.289 120.079 151.496
5,046.596 119.592 149.166
5,083.166 119.092 147.031
5,120.000 118.588 145.170
5,157.102 118.086 143.604
5,194.472 117.590 142.291
5,232.113 117.101 141.181
5,270.027 116.621 140.244
5,308.216 116.155 139.468
5,346.682 115.704 138.865
5,385.426 115.266 138.421
5,424.451 114.839 138.096
5,463.759 114.424 137.863
5,503.352 114.018 137.732
5,543.231 113.621 137.706
5,583.399 113.235 137.785
5,623.859 112.865 137.954
5,664.612 112.514 138.183
5,705.660 112.180 138.445
5,747.006 111.857 138.740
5,788.651 111.542 139.067
5,830.598 111.237 139.416
5,872.849 110.943 139.763
5,915.406 110.657 140.107
5,958.271 110.372 140.468
6,001.447 110.085 140.872
6,044.937 109.801 141.341
6,088.740 109.524 141.869
6,132.862 109.256 142.423
6,177.303 108.994 142.996
6,222.066 108.738 143.589
6,267.154 108.487 144.226
6,312.568 108.245 144.913
6,358.312 108.017 145.594
6,404.387 107.797 146.247
6,450.796 107.577 146.881
6,497.541 107.357 147.520
6,544.625 107.136 148.182
6,592.050 106.920 148.853
6,639.818 106.709 149.519
6,687.934 106.496 150.195
6,736.397 106.276 150.919
6,785.211 106.054 151.713
6,834.380 105.838 152.551
6,883.905 105.630 153.399
6,933.789 105.424 154.275
6,984.034 105.218 155.212
7,034.643 105.014 156.214
7,085.619 104.814 157.265
7,136.964 104.620 158.342
7,188.681 104.428 159.438
7,240.773 104.234 160.574
7,293.243 104.043 161.785
7,346.093 103.859 163.093
7,399.326 103.683 164.491
7,452.944 103.514 165.973
7,506.951 103.353 167.552
7,561.350 103.207 169.212
7,616.143 103.074 170.938
7,671.332 102.959 172.752
7,726.922 102.865 174.681
7,782.915 102.795 176.721
7,839.312 102.757 178.831
7,896.120 102.755 -179.033
7,953.338 102.791 -176.916
8,010.971 102.867 -174.873
8,069.022 102.980 -172.958
8,127.493 103.129 -171.206
8,186.389 103.310 -169.648
8,245.711 103.511 -168.305
8,305.462 103.728 -167.175
8,365.647 103.960 -166.244
8,426.268 104.205 -165.523
8,487.328 104.462 -165.055
8,548.831 104.723 -164.868
8,610.779 104.990 -164.958
8,673.177 105.264 -165.324
8,736.026 105.531 -165.989
8,799.331 105.782 -166.991
8,863.095 106.009 -168.352
8,927.320 106.198 -170.049
8,992.011 106.345 -172.018
9,057.171 106.441 -174.189
9,122.803 106.481 -176.505
9,188.910 106.463 -178.903
9,255.497 106.386 178.685
9,322.566 106.251 176.311
9,390.121 106.058 174.017
9,458.166 105.808 171.861
9,526.704 105.508 169.932
9,595.738 105.166 168.310
9,665.273 104.788 167.024
9,735.312 104.387 166.095
9,805.857 103.974 165.553
9,876.915 103.561 165.342
9,948.487 103.152 165.371
10,020.578 102.736 165.668
10,093.191 102.325 166.343
10,166.331 101.942 167.419
10,240.000 101.601 168.814
10,314.203 101.307 170.407
10,388.944 101.064 172.092
10,464.227 100.865 173.808
10,540.055 100.711 175.550
10,616.433 100.600 177.298
10,693.363 100.528 179.014
10,770.853 100.500 -179.323
10,848.902 100.518 -177.755
10,927.518 100.581 -176.355
11,006.703 100.687 -175.202
11,086.462 100.829 -174.409
11,166.799 100.991 -174.065
11,247.719 101.169 -174.148
11,329.224 101.359 -174.655
11,411.320 101.539 -175.685
11,494.012 101.687 -177.311
11,577.302 101.778 -179.541
11,661.195 101.782 177.680
11,745.697 101.673 174.515
11,830.812 101.432 171.212
11,916.543 101.046 168.040
12,002.895 100.519 165.271
12,089.873 99.864 163.143
12,177.480 99.101 161.835
12,265.724 98.257 161.490
12,354.606 97.372 162.252
12,444.133 96.482 164.214
12,534.309 95.623 167.418
12,625.137 94.833 171.881
12,716.624 94.168 177.570
12,808.773 93.705 -175.705
12,901.592 93.514 -168.392
12,995.082 93.629 -161.074
13,089.250 94.044 -154.312
13,184.100 94.707 -148.705
13,279.637 95.508 -144.733
13,375.867 96.339 -142.476
13,472.794 97.119 -141.700
13,570.423 97.812 -142.016
13,668.760 98.413 -143.010
13,767.810 98.935 -144.405
13,867.577 99.397 -146.062
13,968.067 99.819 -147.937
14,069.285 100.206 -150.062
14,171.237 100.554 -152.467
14,273.928 100.862 -155.139
14,377.362 101.131 -158.005
14,481.547 101.379 -161.019
14,586.486 101.610 -164.267
14,692.186 101.829 -167.848
14,798.651 102.031 -171.858
14,905.889 102.192 -176.438
15,013.902 102.279 178.340
15,122.700 102.249 172.523
15,232.285 102.062 166.343
15,342.664 101.703 160.240
15,453.844 101.184 154.670
15,565.829 100.541 149.912
15,678.625 99.821 146.058
15,792.239 99.073 143.054
15,906.676 98.334 140.789
16,021.942 97.637 139.168
16,138.044 97.002 138.049
16,254.986 96.438 137.260
16,372.777 95.953 136.662
16,491.422 95.565 136.088
16,610.924 95.298 135.211
16,731.295 95.143 133.489
16,852.535 95.028 130.444
16,974.656 94.844 125.969
17,097.662 94.487 120.399
17,221.559 93.886 114.431
17,346.354 93.021 108.958
17,472.053 91.936 104.777
17,598.662 90.733 102.281
17,726.189 89.551 101.359
17,854.641 88.525 101.430
17,984.021 87.698 101.573
18,114.342 86.993 101.097
18,245.605 86.297 100.016
18,377.820 85.554 98.787
18,510.994 84.789 97.736
18,645.133 84.057 96.778
18,780.242 83.397 95.513
18,916.332 82.787 93.377
19,053.408 82.151 89.974
19,191.477 81.382 85.462
19,330.547 80.373 80.542
19,470.623 79.071 76.254
19,611.715 77.516 73.604
19,753.830 75.856 72.914
19,896.975 74.398 73.527
