* Measurement data measured by REW V5.20 Beta 4
* Source: Microphone (E.A.R.S Gain: 18dB  ), no input selected, L, volume: no control
* Format: 256k Log Swept Sine, 1 sweep at -7.0 dBFS  With no timing reference
* Dated: Jan 28, 2019 10:59:25 AM
* REW Settings:
*  C-weighting compensation: Off
*  Target level: 75.0 dB
* Note: ; 
* Measurement: B&O BEOPLAY H4 L
* Smoothing: 1/48 octave
* Frequency Step: 1/96 octave
* Start Frequency: 20.1 Hz
*
* Freq(Hz) SPL(dB) Phase(degrees)
20.145 108.877 78.453
20.291 108.920 78.208
20.438 108.964 77.807
20.586 109.028 77.181
20.735 109.130 76.306
20.885 109.230 75.431
21.037 109.317 74.651
21.189 109.398 73.902
21.343 109.475 73.187
21.497 109.546 72.504
21.653 109.617 71.816
21.810 109.688 71.117
21.968 109.758 70.420
22.127 109.825 69.731
22.288 109.891 69.048
22.449 109.955 68.372
22.612 110.017 67.703
22.776 110.077 67.037
22.941 110.137 66.372
23.107 110.195 65.711
23.274 110.251 65.054
23.443 110.307 64.400
23.613 110.361 63.748
23.784 110.413 63.099
23.956 110.465 62.451
24.130 110.516 61.804
24.305 110.565 61.158
24.481 110.613 60.514
24.658 110.660 59.869
24.837 110.706 59.225
25.017 110.751 58.581
25.198 110.794 57.936
25.381 110.837 57.291
25.565 110.878 56.644
25.750 110.919 55.997
25.937 110.958 55.348
26.125 110.996 54.698
26.314 111.033 54.047
26.505 111.069 53.395
26.697 111.103 52.742
26.890 111.136 52.087
27.085 111.169 51.432
27.281 111.200 50.775
27.479 111.229 50.118
27.678 111.258 49.461
27.879 111.285 48.803
28.081 111.312 48.145
28.284 111.337 47.487
28.489 111.361 46.830
28.696 111.384 46.172
28.904 111.406 45.516
29.113 111.427 44.859
29.324 111.447 44.204
29.537 111.467 43.549
29.751 111.485 42.894
29.966 111.503 42.240
30.183 111.520 41.586
30.402 111.536 40.932
30.622 111.551 40.279
30.844 111.566 39.625
31.068 111.580 38.970
31.293 111.593 38.316
31.520 111.605 37.660
31.748 111.617 37.005
31.978 111.627 36.348
32.210 111.637 35.691
32.443 111.646 35.034
32.678 111.654 34.376
32.915 111.661 33.719
33.154 111.667 33.061
33.394 111.673 32.403
33.636 111.677 31.746
33.880 111.680 31.090
34.125 111.683 30.434
34.372 111.684 29.778
34.621 111.685 29.124
34.872 111.684 28.471
35.125 111.682 27.819
35.380 111.680 27.168
35.636 111.676 26.519
35.894 111.671 25.871
36.154 111.666 25.225
36.416 111.659 24.581
36.680 111.651 23.939
36.946 111.642 23.300
37.214 111.632 22.664
37.483 111.621 22.031
37.755 111.609 21.401
38.029 111.595 20.776
38.304 111.581 20.154
38.582 111.566 19.536
38.861 111.550 18.922
39.143 111.533 18.312
39.427 111.515 17.707
39.712 111.497 17.105
40.000 111.477 16.507
40.290 111.457 15.913
40.582 111.436 15.323
40.876 111.413 14.738
41.172 111.390 14.156
41.470 111.366 13.580
41.771 111.342 13.008
42.074 111.316 12.442
42.379 111.290 11.881
42.686 111.262 11.326
42.995 111.234 10.777
43.306 111.205 10.235
43.620 111.176 9.700
43.936 111.146 9.172
44.255 111.115 8.651
44.575 111.084 8.138
44.898 111.053 7.633
45.224 111.021 7.135
45.552 110.990 6.643
45.882 110.958 6.158
46.214 110.927 5.678
46.549 110.895 5.204
46.886 110.863 4.734
47.226 110.831 4.268
47.568 110.799 3.808
47.913 110.767 3.354
48.260 110.734 2.907
48.610 110.702 2.468
48.962 110.670 2.037
49.317 110.638 1.614
49.674 110.607 1.197
50.034 110.578 0.785
50.397 110.550 0.375
50.762 110.522 -0.036
51.130 110.496 -0.451
51.500 110.471 -0.872
51.874 110.447 -1.300
52.249 110.422 -1.737
52.628 110.397 -2.184
53.009 110.372 -2.639
53.394 110.345 -3.103
53.781 110.318 -3.576
54.170 110.289 -4.055
54.563 110.258 -4.541
54.958 110.225 -5.033
55.356 110.190 -5.528
55.758 110.153 -6.027
56.162 110.113 -6.525
56.569 110.071 -7.022
56.978 110.026 -7.515
57.391 109.978 -8.000
57.807 109.928 -8.476
58.226 109.875 -8.942
58.648 109.821 -9.397
59.073 109.766 -9.841
59.501 109.709 -10.273
59.932 109.650 -10.696
60.367 109.591 -11.108
60.804 109.530 -11.511
61.245 109.467 -11.903
61.688 109.404 -12.285
62.135 109.338 -12.655
62.586 109.272 -13.011
63.039 109.204 -13.352
63.496 109.135 -13.677
63.956 109.066 -13.985
64.420 108.996 -14.275
64.886 108.926 -14.548
65.357 108.855 -14.804
65.830 108.786 -15.044
66.307 108.716 -15.269
66.788 108.648 -15.480
67.272 108.580 -15.679
67.759 108.512 -15.867
68.250 108.445 -16.044
68.745 108.379 -16.210
69.243 108.312 -16.364
69.745 108.247 -16.505
70.250 108.182 -16.632
70.759 108.118 -16.747
71.272 108.055 -16.851
71.788 107.993 -16.945
72.309 107.932 -17.031
72.833 107.872 -17.108
73.360 107.813 -17.173
73.892 107.755 -17.228
74.427 107.698 -17.274
74.967 107.642 -17.313
75.510 107.588 -17.345
76.057 107.534 -17.370
76.608 107.480 -17.386
77.163 107.428 -17.390
77.723 107.376 -17.380
78.286 107.326 -17.355
78.853 107.278 -17.320
79.424 107.233 -17.277
80.000 107.190 -17.230
80.580 107.148 -17.180
81.164 107.108 -17.123
81.752 107.069 -17.058
82.344 107.033 -16.981
82.941 106.999 -16.891
83.542 106.969 -16.794
84.147 106.944 -16.697
84.757 106.924 -16.612
85.371 106.906 -16.546
85.990 106.889 -16.499
86.613 106.872 -16.463
87.241 106.855 -16.422
87.873 106.840 -16.367
88.510 106.829 -16.298
89.151 106.824 -16.232
89.797 106.826 -16.193
90.448 106.832 -16.198
91.103 106.839 -16.251
91.763 106.844 -16.343
92.428 106.846 -16.455
93.098 106.845 -16.575
93.773 106.843 -16.697
94.452 106.842 -16.822
95.137 106.841 -16.958
95.826 106.841 -17.108
96.520 106.842 -17.278
97.220 106.841 -17.467
97.924 106.838 -17.672
98.634 106.834 -17.891
99.349 106.828 -18.121
100.069 106.820 -18.360
100.794 106.810 -18.606
101.524 106.797 -18.857
102.260 106.783 -19.112
103.001 106.766 -19.369
103.747 106.748 -19.627
104.499 106.727 -19.884
105.256 106.705 -20.138
106.019 106.681 -20.390
106.787 106.656 -20.642
107.561 106.629 -20.891
108.340 106.601 -21.138
109.126 106.570 -21.378
109.916 106.539 -21.610
110.713 106.506 -21.833
111.515 106.472 -22.047
112.323 106.437 -22.251
113.137 106.402 -22.446
113.957 106.366 -22.630
114.783 106.330 -22.804
115.614 106.295 -22.969
116.452 106.259 -23.126
117.296 106.225 -23.277
118.146 106.191 -23.423
119.002 106.157 -23.564
119.865 106.124 -23.702
120.733 106.092 -23.837
121.608 106.060 -23.971
122.489 106.029 -24.105
123.377 105.998 -24.239
124.271 105.968 -24.374
125.171 105.938 -24.511
126.078 105.909 -24.648
126.992 105.879 -24.786
127.912 105.851 -24.928
128.839 105.822 -25.073
129.773 105.792 -25.213
130.713 105.763 -25.344
131.660 105.737 -25.472
132.615 105.713 -25.610
133.575 105.690 -25.762
134.543 105.666 -25.923
135.518 105.643 -26.090
136.500 105.621 -26.268
137.490 105.598 -26.458
138.486 105.575 -26.659
139.489 105.553 -26.871
140.500 105.530 -27.101
141.518 105.506 -27.352
142.544 105.479 -27.620
143.577 105.449 -27.897
144.617 105.417 -28.179
145.665 105.382 -28.467
146.721 105.344 -28.758
147.784 105.304 -29.050
148.855 105.261 -29.339
149.933 105.217 -29.624
151.020 105.171 -29.907
152.114 105.124 -30.196
153.217 105.073 -30.493
154.327 105.019 -30.795
155.445 104.959 -31.092
156.572 104.895 -31.373
157.706 104.827 -31.633
158.849 104.756 -31.867
160.000 104.683 -32.075
161.159 104.607 -32.254
162.327 104.530 -32.401
163.504 104.452 -32.510
164.688 104.373 -32.576
165.882 104.297 -32.594
167.084 104.226 -32.566
168.295 104.162 -32.511
169.514 104.105 -32.454
170.742 104.055 -32.410
171.980 104.008 -32.385
173.226 103.965 -32.378
174.481 103.922 -32.391
175.746 103.881 -32.422
177.019 103.840 -32.468
178.302 103.798 -32.525
179.594 103.758 -32.593
180.895 103.716 -32.670
182.206 103.676 -32.753
183.527 103.635 -32.845
184.856 103.595 -32.954
186.196 103.554 -33.086
187.545 103.510 -33.235
188.904 103.462 -33.383
190.273 103.413 -33.526
191.652 103.363 -33.674
193.041 103.312 -33.830
194.440 103.258 -33.990
195.849 103.202 -34.148
197.268 103.143 -34.297
198.697 103.082 -34.433
200.137 103.022 -34.556
201.587 102.963 -34.673
203.048 102.906 -34.796
204.520 102.850 -34.939
206.002 102.792 -35.112
207.494 102.731 -35.308
208.998 102.664 -35.507
210.512 102.595 -35.694
212.038 102.526 -35.874
213.574 102.458 -36.067
215.122 102.389 -36.292
216.681 102.315 -36.548
218.251 102.231 -36.811
219.833 102.139 -37.051
221.426 102.041 -37.258
223.030 101.938 -37.440
224.646 101.829 -37.592
226.274 101.714 -37.696
227.914 101.595 -37.747
229.565 101.474 -37.747
231.229 101.353 -37.700
232.905 101.233 -37.614
234.592 101.112 -37.493
236.292 100.992 -37.336
238.004 100.873 -37.139
239.729 100.757 -36.897
241.466 100.647 -36.617
243.216 100.545 -36.316
244.979 100.451 -36.009
246.754 100.364 -35.718
248.542 100.279 -35.461
250.343 100.191 -35.216
252.157 100.098 -34.930
253.984 100.011 -34.605
255.825 99.928 -34.285
257.678 99.847 -33.985
259.546 99.767 -33.695
261.426 99.685 -33.405
263.321 99.604 -33.106
265.229 99.525 -32.792
267.151 99.448 -32.477
269.087 99.372 -32.161
271.037 99.296 -31.841
273.001 99.223 -31.524
274.979 99.150 -31.226
276.972 99.073 -30.943
278.979 98.993 -30.643
281.000 98.912 -30.315
283.037 98.833 -29.972
285.088 98.754 -29.616
287.153 98.677 -29.244
289.234 98.601 -28.864
291.330 98.527 -28.481
293.441 98.453 -28.096
295.568 98.382 -27.716
297.710 98.311 -27.351
299.867 98.238 -26.996
302.040 98.161 -26.631
304.228 98.082 -26.241
306.433 98.004 -25.822
308.654 97.928 -25.384
310.890 97.856 -24.947
313.143 97.783 -24.522
315.412 97.707 -24.088
317.698 97.631 -23.634
320.000 97.555 -23.161
322.319 97.481 -22.671
324.655 97.409 -22.178
327.007 97.336 -21.682
329.377 97.262 -21.162
331.764 97.189 -20.604
334.168 97.122 -20.027
336.589 97.058 -19.459
339.028 96.995 -18.904
341.485 96.930 -18.343
343.959 96.865 -17.762
346.452 96.803 -17.173
348.962 96.742 -16.586
351.491 96.681 -15.998
354.038 96.620 -15.405
356.604 96.559 -14.797
359.188 96.497 -14.170
361.791 96.438 -13.525
364.412 96.380 -12.865
367.053 96.323 -12.197
369.713 96.268 -11.521
372.392 96.215 -10.834
375.090 96.164 -10.144
377.809 96.114 -9.457
380.546 96.063 -8.763
383.304 96.012 -8.049
386.081 95.963 -7.310
388.879 95.918 -6.556
391.697 95.875 -5.798
394.536 95.833 -5.032
397.395 95.793 -4.246
400.274 95.755 -3.454
403.175 95.718 -2.653
406.096 95.681 -1.813
409.039 95.653 -0.948
412.003 95.631 -0.120
414.989 95.606 0.665
417.996 95.576 1.466
421.025 95.546 2.300
424.076 95.521 3.156
427.149 95.501 4.017
430.244 95.483 4.884
433.362 95.469 5.764
436.502 95.459 6.648
439.665 95.452 7.539
442.851 95.450 8.428
446.060 95.450 9.308
449.293 95.451 10.186
452.548 95.454 11.062
455.828 95.459 11.932
459.131 95.462 12.799
462.458 95.463 13.686
465.809 95.465 14.608
469.184 95.469 15.563
472.584 95.476 16.549
476.009 95.490 17.563
479.458 95.512 18.586
482.933 95.540 19.600
486.432 95.569 20.621
489.957 95.603 21.665
493.507 95.644 22.731
497.084 95.692 23.816
500.686 95.749 24.906
504.314 95.815 25.990
507.968 95.891 27.063
511.649 95.978 28.112
515.357 96.074 29.125
519.091 96.181 30.088
522.853 96.295 30.984
526.642 96.413 31.811
530.458 96.534 32.574
534.302 96.655 33.276
538.174 96.776 33.926
542.074 96.897 34.531
546.002 97.019 35.088
549.958 97.139 35.607
553.943 97.257 36.089
557.958 97.371 36.542
562.001 97.481 36.973
566.073 97.590 37.381
570.175 97.699 37.760
574.307 97.806 38.099
578.469 97.910 38.409
582.660 98.010 38.703
586.883 98.108 38.979
591.135 98.202 39.239
595.419 98.293 39.496
599.734 98.382 39.765
604.080 98.472 40.044
608.457 98.562 40.305
612.866 98.650 40.538
617.307 98.733 40.766
621.780 98.814 41.011
626.286 98.898 41.261
630.824 98.982 41.494
635.396 99.064 41.717
640.000 99.143 41.952
644.638 99.224 42.205
649.309 99.307 42.458
654.014 99.391 42.694
658.753 99.475 42.918
663.527 99.560 43.139
668.335 99.646 43.351
673.178 99.733 43.541
678.056 99.820 43.707
682.970 99.907 43.863
687.919 99.994 44.014
692.904 100.082 44.148
697.925 100.169 44.256
702.982 100.253 44.352
708.076 100.335 44.462
713.208 100.421 44.570
718.376 100.507 44.655
723.581 100.592 44.728
728.825 100.678 44.785
734.106 100.763 44.818
739.426 100.845 44.834
744.784 100.926 44.839
750.181 101.007 44.830
755.617 101.085 44.799
761.093 101.161 44.757
766.608 101.237 44.703
772.163 101.310 44.634
777.758 101.380 44.558
783.394 101.447 44.477
789.071 101.513 44.393
794.789 101.579 44.305
800.548 101.644 44.203
806.349 101.704 44.087
812.193 101.760 43.978
818.078 101.814 43.890
824.006 101.870 43.802
829.977 101.926 43.698
835.992 101.980 43.572
842.050 102.030 43.434
848.151 102.076 43.306
854.297 102.122 43.180
860.488 102.166 43.051
866.724 102.207 42.936
873.004 102.248 42.828
879.330 102.290 42.706
885.702 102.328 42.583
892.120 102.364 42.467
898.585 102.398 42.349
905.097 102.430 42.237
911.655 102.460 42.140
918.262 102.491 42.051
924.916 102.521 41.960
931.618 102.551 41.871
938.369 102.581 41.780
945.169 102.610 41.682
952.018 102.635 41.587
958.917 102.659 41.507
965.865 102.684 41.433
972.864 102.709 41.365
979.914 102.734 41.304
987.015 102.761 41.231
994.167 102.786 41.144
1,001.371 102.812 41.047
1,008.628 102.836 40.928
1,015.937 102.858 40.791
1,023.299 102.874 40.648
1,030.714 102.884 40.511
1,038.183 102.889 40.404
1,045.706 102.897 40.329
1,053.283 102.907 40.260
1,060.916 102.918 40.166
1,068.604 102.926 40.046
1,076.347 102.927 39.923
1,084.147 102.924 39.813
1,092.003 102.918 39.715
1,099.916 102.909 39.618
1,107.887 102.896 39.530
1,115.915 102.877 39.474
1,124.001 102.854 39.463
1,132.146 102.832 39.489
1,140.350 102.810 39.532
1,148.614 102.788 39.594
1,156.937 102.766 39.681
1,165.321 102.742 39.794
1,173.765 102.717 39.938
1,182.271 102.694 40.106
1,190.838 102.671 40.298
1,199.467 102.651 40.511
1,208.159 102.633 40.748
1,216.914 102.618 41.003
1,225.732 102.606 41.263
1,234.614 102.594 41.530
1,243.561 102.582 41.813
1,252.572 102.572 42.113
1,261.649 102.565 42.415
1,270.791 102.560 42.720
1,280.000 102.556 43.034
1,289.275 102.553 43.360
1,298.618 102.552 43.700
1,308.028 102.553 44.046
1,317.507 102.558 44.391
1,327.054 102.563 44.733
1,336.670 102.570 45.076
1,346.357 102.578 45.425
1,356.113 102.587 45.777
1,365.940 102.598 46.125
1,375.838 102.609 46.467
1,385.808 102.622 46.803
1,395.850 102.635 47.129
1,405.965 102.647 47.449
1,416.153 102.659 47.770
1,426.415 102.669 48.100
1,436.751 102.681 48.438
1,447.163 102.693 48.779
1,457.649 102.705 49.123
1,468.212 102.715 49.472
1,478.851 102.724 49.825
1,489.568 102.731 50.186
1,500.362 102.738 50.565
1,511.234 102.746 50.966
1,522.185 102.756 51.367
1,533.215 102.765 51.763
1,544.326 102.774 52.162
1,555.517 102.782 52.578
1,566.789 102.790 53.011
1,578.142 102.797 53.456
1,589.578 102.804 53.920
1,601.097 102.812 54.398
1,612.699 102.819 54.896
1,624.385 102.827 55.413
1,636.156 102.836 55.945
1,648.012 102.845 56.489
1,659.955 102.854 57.052
1,671.983 102.863 57.634
1,684.099 102.872 58.243
1,696.303 102.882 58.888
1,708.595 102.893 59.573
1,720.976 102.908 60.281
1,733.447 102.925 61.013
1,746.008 102.943 61.777
1,758.661 102.965 62.576
1,771.405 102.992 63.425
1,784.241 103.026 64.315
1,797.170 103.070 65.219
1,810.193 103.120 66.122
1,823.311 103.176 67.016
1,836.523 103.235 67.905
1,849.831 103.295 68.806
1,863.236 103.360 69.717
1,876.738 103.428 70.631
1,890.338 103.497 71.567
1,904.036 103.568 72.538
1,917.833 103.644 73.549
1,931.730 103.728 74.602
1,945.729 103.818 75.702
1,959.828 103.919 76.844
1,974.030 104.031 78.012
1,988.334 104.154 79.207
2,002.743 104.291 80.435
2,017.255 104.448 81.675
2,031.873 104.621 82.901
2,046.597 104.810 84.098
2,061.428 105.013 85.256
2,076.365 105.231 86.366
2,091.412 105.466 87.416
2,106.567 105.717 88.389
2,121.832 105.981 89.272
2,137.208 106.256 90.057
2,152.695 106.540 90.727
2,168.294 106.831 91.275
2,184.007 107.128 91.691
2,199.833 107.425 91.971
2,215.774 107.716 92.128
2,231.830 107.993 92.198
2,248.003 108.259 92.254
2,264.293 108.522 92.355
2,280.701 108.800 92.503
2,297.228 109.105 92.596
2,313.874 109.431 92.503
2,330.642 109.762 92.148
2,347.530 110.076 91.535
2,364.542 110.358 90.745
2,381.676 110.606 89.889
2,398.935 110.824 89.083
2,416.318 111.026 88.408
2,433.828 111.229 87.868
2,451.464 111.442 87.432
2,469.229 111.673 87.041
2,487.122 111.925 86.633
2,505.145 112.202 86.142
2,523.298 112.498 85.491
2,541.583 112.806 84.615
2,560.000 113.114 83.474
2,578.551 113.408 82.072
2,597.236 113.676 80.457
2,616.057 113.915 78.700
2,635.014 114.126 76.857
2,654.108 114.314 74.955
2,673.341 114.479 73.006
2,692.713 114.622 71.006
2,712.226 114.742 68.944
2,731.879 114.833 66.831
2,751.676 114.894 64.694
2,771.615 114.924 62.557
2,791.700 114.923 60.443
2,811.930 114.888 58.383
2,832.306 114.819 56.416
2,852.830 114.717 54.574
2,873.503 114.585 52.894
2,894.325 114.424 51.408
2,915.299 114.238 50.153
2,936.424 114.034 49.161
2,957.703 113.819 48.454
2,979.136 113.598 48.051
3,000.724 113.379 47.961
3,022.468 113.169 48.182
3,044.370 112.978 48.712
3,066.431 112.816 49.535
3,088.652 112.689 50.615
3,111.033 112.604 51.912
3,133.577 112.568 53.368
3,156.284 112.589 54.919
3,179.156 112.670 56.492
3,202.193 112.808 58.020
3,225.398 112.998 59.428
3,248.771 113.240 60.639
3,272.312 113.526 61.596
3,296.025 113.846 62.255
3,319.909 114.188 62.571
3,343.967 114.541 62.524
3,368.198 114.894 62.113
3,392.606 115.233 61.358
3,417.190 115.549 60.283
3,441.952 115.829 58.937
3,466.894 116.068 57.405
3,492.017 116.265 55.779
3,517.321 116.421 54.137
3,542.809 116.538 52.546
3,568.482 116.623 51.055
3,594.341 116.682 49.697
3,620.387 116.725 48.526
3,646.622 116.761 47.567
3,673.046 116.802 46.794
3,699.663 116.858 46.185
3,726.472 116.937 45.695
3,753.476 117.042 45.236
3,780.675 117.171 44.727
3,808.071 117.315 44.115
3,835.666 117.463 43.378
3,863.461 117.608 42.562
3,891.457 117.744 41.738
3,919.656 117.875 40.964
3,948.060 118.010 40.267
3,976.669 118.158 39.647
4,005.486 118.330 39.077
4,034.511 118.531 38.490
4,063.747 118.761 37.842
4,093.194 119.021 37.095
4,122.855 119.311 36.202
4,152.731 119.630 35.133
4,182.824 119.974 33.827
4,213.134 120.333 32.193
4,243.664 120.691 30.220
4,274.416 121.032 27.858
4,305.390 121.326 25.002
4,336.588 121.559 21.611
4,368.013 121.737 17.707
4,399.666 121.863 13.321
4,431.547 121.936 8.433
4,463.660 121.965 3.084
4,496.005 121.964 -2.555
4,528.585 121.934 -8.259
4,561.401 121.875 -13.829
4,594.455 121.779 -19.077
4,627.749 121.638 -23.807
4,661.283 121.452 -27.938
4,695.061 121.213 -31.578
4,729.083 120.904 -34.842
4,763.352 120.534 -37.783
4,797.869 120.122 -40.446
4,832.637 119.687 -42.928
4,867.656 119.251 -45.272
4,902.929 118.822 -47.470
4,938.458 118.399 -49.530
4,974.244 117.976 -51.464
5,010.289 117.553 -53.283
5,046.596 117.131 -55.001
5,083.166 116.710 -56.625
5,120.000 116.290 -58.156
5,157.102 115.876 -59.607
5,194.472 115.467 -60.984
5,232.113 115.062 -62.310
5,270.027 114.658 -63.631
5,308.216 114.249 -64.955
5,346.682 113.835 -66.268
5,385.426 113.418 -67.557
5,424.451 112.996 -68.800
5,463.759 112.564 -70.010
5,503.352 112.125 -71.201
5,543.231 111.678 -72.385
5,583.399 111.220 -73.581
5,623.859 110.750 -74.802
5,664.612 110.264 -76.059
5,705.660 109.753 -77.349
5,747.006 109.209 -78.664
5,788.651 108.623 -79.969
5,830.598 107.988 -81.206
5,872.849 107.299 -82.303
5,915.406 106.554 -83.172
5,958.271 105.751 -83.728
6,001.447 104.889 -83.878
6,044.937 103.974 -83.513
6,088.740 103.010 -82.525
6,132.862 102.006 -80.802
6,177.303 100.980 -78.227
6,222.066 99.951 -74.671
6,267.154 98.959 -70.045
6,312.568 98.052 -64.361
6,358.312 97.284 -57.780
6,404.387 96.701 -50.624
6,450.796 96.324 -43.289
6,497.541 96.142 -36.153
6,544.625 96.116 -29.489
6,592.050 96.198 -23.437
6,639.818 96.350 -18.007
6,687.934 96.543 -13.131
6,736.397 96.758 -8.743
6,785.211 96.984 -4.743
6,834.380 97.224 -1.043
6,883.905 97.478 2.397
6,933.789 97.740 5.591
6,984.034 98.016 8.537
7,034.643 98.302 11.235
7,085.619 98.595 13.708
7,136.964 98.895 15.969
7,188.681 99.200 18.034
7,240.773 99.505 19.899
7,293.243 99.810 21.550
7,346.093 100.113 22.977
7,399.326 100.407 24.186
7,452.944 100.689 25.205
7,506.951 100.960 26.080
7,561.350 101.221 26.854
7,616.143 101.468 27.532
7,671.332 101.704 28.116
7,726.922 101.928 28.609
7,782.915 102.140 29.005
7,839.312 102.338 29.305
7,896.120 102.520 29.542
7,953.338 102.689 29.752
8,010.971 102.844 29.959
8,069.022 102.987 30.163
8,127.493 103.121 30.380
8,186.389 103.248 30.638
8,245.711 103.375 30.955
8,305.462 103.502 31.324
8,365.647 103.630 31.725
8,426.268 103.760 32.154
8,487.328 103.894 32.613
8,548.831 104.033 33.096
8,610.779 104.181 33.593
8,673.177 104.344 34.111
8,736.026 104.528 34.656
8,799.331 104.735 35.198
8,863.095 104.963 35.674
8,927.320 105.215 36.056
8,992.011 105.492 36.324
9,057.171 105.792 36.440
9,122.803 106.113 36.374
9,188.910 106.459 36.101
9,255.497 106.822 35.574
9,322.566 107.196 34.730
9,390.121 107.574 33.509
9,458.166 107.942 31.872
9,526.704 108.297 29.842
9,595.738 108.637 27.464
9,665.273 108.954 24.726
9,735.312 109.236 21.562
9,805.857 109.465 17.913
9,876.915 109.620 13.798
9,948.487 109.679 9.319
10,020.578 109.619 4.649
10,093.191 109.428 0.034
10,166.331 109.114 -4.238
10,240.000 108.702 -7.946
10,314.203 108.236 -11.012
10,388.944 107.756 -13.553
10,464.227 107.266 -15.763
10,540.055 106.746 -17.701
10,616.433 106.189 -19.247
10,693.363 105.600 -20.279
10,770.853 104.999 -20.744
10,848.902 104.412 -20.631
10,927.518 103.862 -20.023
11,006.703 103.357 -19.052
11,086.462 102.908 -17.809
11,166.799 102.519 -16.373
11,247.719 102.178 -14.870
11,329.224 101.881 -13.348
11,411.320 101.625 -11.799
11,494.012 101.403 -10.248
11,577.302 101.206 -8.734
11,661.195 101.024 -7.243
11,745.697 100.853 -5.717
11,830.812 100.702 -4.122
11,916.543 100.587 -2.463
12,002.895 100.526 -0.739
12,089.873 100.523 0.991
12,177.480 100.581 2.591
12,265.724 100.698 3.878
12,354.606 100.854 4.681
12,444.133 101.021 4.937
12,534.309 101.181 4.714
12,625.137 101.323 4.070
12,716.624 101.431 3.014
12,808.773 101.497 1.584
12,901.592 101.508 -0.172
12,995.082 101.454 -2.241
13,089.250 101.323 -4.600
13,184.100 101.100 -7.167
13,279.637 100.759 -9.818
13,375.867 100.269 -12.315
13,472.794 99.616 -14.224
13,570.423 98.816 -15.045
13,668.760 97.926 -14.397
13,767.810 97.032 -12.138
13,867.577 96.216 -8.399
13,968.067 95.544 -3.463
14,069.285 95.070 2.307
14,171.237 94.816 8.490
14,273.928 94.775 14.738
14,377.362 94.940 20.854
14,481.547 95.317 26.600
14,586.486 95.883 31.549
14,692.186 96.594 35.388
14,798.651 97.391 38.008
14,905.889 98.213 39.350
15,013.902 99.014 39.444
15,122.700 99.767 38.483
15,232.285 100.468 36.689
15,342.664 101.100 34.062
15,453.844 101.615 30.657
15,565.829 102.038 26.921
15,678.625 102.419 22.775
15,792.239 102.706 17.858
15,906.676 102.834 12.395
16,021.942 102.780 6.877
16,138.044 102.565 1.718
16,254.986 102.230 -2.843
16,372.777 101.810 -6.755
16,491.422 101.336 -10.046
16,610.924 100.838 -12.729
16,731.295 100.340 -14.849
16,852.535 99.851 -16.518
16,974.656 99.386 -17.829
17,097.662 98.949 -18.899
17,221.559 98.537 -19.869
17,346.354 98.133 -20.787
17,472.053 97.731 -21.532
17,598.662 97.344 -21.967
17,726.189 96.994 -22.091
17,854.641 96.722 -22.018
17,984.021 96.551 -22.058
18,114.342 96.473 -22.693
18,245.605 96.444 -24.287
18,377.820 96.392 -26.930
18,510.994 96.233 -30.458
18,645.133 95.909 -34.475
18,780.242 95.399 -38.471
18,916.332 94.716 -41.982
19,053.408 93.892 -44.611
19,191.477 92.990 -45.994
19,330.547 92.093 -45.990
19,470.623 91.291 -44.822
19,611.715 90.661 -43.019
19,753.830 90.236 -41.250
19,896.975 89.997 -40.073
