* Measurement data measured by REW V5.20 Beta 4
* Source: Microphone (E.A.R.S Gain: 18dB  ), no input selected, L, volume: no control
* Format: 256k Log Swept Sine, 1 sweep at -7.0 dBFS  With no timing reference
* Dated: Jan 28, 2019 11:22:17 AM
* REW Settings:
*  C-weighting compensation: Off
*  Target level: 75.0 dB
* Note: ; 
* Measurement: B&O BEOPLAY H8 L
* Smoothing: 1/48 octave
* Frequency Step: 1/96 octave
* Start Frequency: 20.1 Hz
*
* Freq(Hz) SPL(dB) Phase(degrees)
20.145 80.985 -29.070
20.291 81.053 -29.242
20.438 81.122 -29.525
20.586 81.221 -29.968
20.735 81.379 -30.587
20.885 81.536 -31.208
21.037 81.675 -31.764
21.189 81.807 -32.301
21.343 81.933 -32.817
21.497 82.054 -33.314
21.653 82.175 -33.816
21.810 82.297 -34.329
21.968 82.417 -34.843
22.127 82.536 -35.354
22.288 82.653 -35.865
22.449 82.768 -36.373
22.612 82.882 -36.880
22.776 82.994 -37.388
22.941 83.105 -37.898
23.107 83.214 -38.409
23.274 83.321 -38.919
23.443 83.427 -39.430
23.613 83.531 -39.942
23.784 83.633 -40.453
23.956 83.734 -40.964
24.130 83.832 -41.474
24.305 83.929 -41.982
24.481 84.024 -42.487
24.658 84.117 -42.989
24.837 84.208 -43.487
25.017 84.297 -43.978
25.198 84.385 -44.462
25.381 84.471 -44.938
25.565 84.556 -45.405
25.750 84.639 -45.860
25.937 84.722 -46.304
26.125 84.805 -46.735
26.314 84.887 -47.153
26.505 84.969 -47.559
26.697 85.052 -47.953
26.890 85.137 -48.336
27.085 85.223 -48.711
27.281 85.310 -49.081
27.479 85.400 -49.447
27.678 85.492 -49.814
27.879 85.586 -50.185
28.081 85.682 -50.564
28.284 85.779 -50.954
28.489 85.878 -51.357
28.696 85.978 -51.776
28.904 86.078 -52.211
29.113 86.179 -52.664
29.324 86.278 -53.134
29.537 86.377 -53.620
29.751 86.474 -54.119
29.966 86.570 -54.631
30.183 86.663 -55.153
30.402 86.755 -55.682
30.622 86.845 -56.217
30.844 86.933 -56.756
31.068 87.019 -57.298
31.293 87.103 -57.841
31.520 87.186 -58.385
31.748 87.267 -58.930
31.978 87.347 -59.476
32.210 87.424 -60.023
32.443 87.501 -60.571
32.678 87.575 -61.118
32.915 87.647 -61.665
33.154 87.717 -62.210
33.394 87.785 -62.750
33.636 87.850 -63.285
33.880 87.913 -63.810
34.125 87.974 -64.323
34.372 88.033 -64.823
34.621 88.090 -65.306
34.872 88.146 -65.771
35.125 88.201 -66.216
35.380 88.256 -66.642
35.636 88.311 -67.050
35.894 88.367 -67.440
36.154 88.425 -67.815
36.416 88.483 -68.177
36.680 88.544 -68.529
36.946 88.606 -68.875
37.214 88.669 -69.216
37.483 88.735 -69.556
37.755 88.801 -69.897
38.029 88.869 -70.241
38.304 88.938 -70.589
38.582 89.007 -70.944
38.861 89.076 -71.305
39.143 89.146 -71.672
39.427 89.214 -72.046
39.712 89.282 -72.425
40.000 89.348 -72.807
40.290 89.413 -73.190
40.582 89.477 -73.572
40.876 89.539 -73.951
41.172 89.600 -74.324
41.470 89.660 -74.690
41.771 89.719 -75.048
42.074 89.777 -75.397
42.379 89.836 -75.739
42.686 89.895 -76.075
42.995 89.955 -76.408
43.306 90.015 -76.740
43.620 90.075 -77.076
43.936 90.135 -77.416
44.255 90.194 -77.763
44.575 90.252 -78.116
44.898 90.307 -78.471
45.224 90.360 -78.822
45.552 90.410 -79.161
45.882 90.457 -79.477
46.214 90.504 -79.762
46.549 90.551 -80.009
46.886 90.603 -80.218
47.226 90.661 -80.398
47.568 90.728 -80.566
47.913 90.805 -80.748
48.260 90.892 -80.970
48.610 90.985 -81.257
48.962 91.082 -81.626
49.317 91.176 -82.078
49.674 91.265 -82.606
50.034 91.345 -83.188
50.397 91.414 -83.798
50.762 91.472 -84.407
51.130 91.522 -84.993
51.500 91.567 -85.543
51.874 91.609 -86.054
52.249 91.652 -86.533
52.628 91.696 -86.991
53.009 91.743 -87.440
53.394 91.791 -87.889
53.781 91.841 -88.344
54.170 91.890 -88.807
54.563 91.939 -89.277
54.958 91.988 -89.750
55.356 92.035 -90.227
55.758 92.081 -90.705
56.162 92.125 -91.183
56.569 92.167 -91.659
56.978 92.208 -92.129
57.391 92.246 -92.587
57.807 92.283 -93.027
58.226 92.318 -93.447
58.648 92.354 -93.846
59.073 92.392 -94.227
59.501 92.430 -94.594
59.932 92.471 -94.952
60.367 92.512 -95.307
60.804 92.555 -95.659
61.245 92.598 -96.009
61.688 92.642 -96.357
62.135 92.685 -96.699
62.586 92.729 -97.037
63.039 92.774 -97.370
63.496 92.819 -97.702
63.956 92.865 -98.035
64.420 92.911 -98.370
64.886 92.956 -98.706
65.357 93.000 -99.040
65.830 93.044 -99.366
66.307 93.086 -99.680
66.788 93.130 -99.977
67.272 93.175 -100.258
67.759 93.224 -100.533
68.250 93.277 -100.813
68.745 93.334 -101.117
69.243 93.392 -101.458
69.745 93.449 -101.837
70.250 93.500 -102.245
70.759 93.545 -102.663
71.272 93.584 -103.068
71.788 93.618 -103.443
72.309 93.651 -103.781
72.833 93.686 -104.087
73.360 93.724 -104.374
73.892 93.765 -104.655
74.427 93.809 -104.941
74.967 93.854 -105.239
75.510 93.900 -105.549
76.057 93.945 -105.870
76.608 93.989 -106.195
77.163 94.032 -106.522
77.723 94.075 -106.846
78.286 94.117 -107.166
78.853 94.159 -107.484
79.424 94.201 -107.803
80.000 94.244 -108.125
80.580 94.286 -108.451
81.164 94.328 -108.781
81.752 94.369 -109.112
82.344 94.409 -109.445
82.941 94.449 -109.777
83.542 94.488 -110.113
84.147 94.527 -110.454
84.757 94.563 -110.803
85.371 94.597 -111.153
85.990 94.628 -111.495
86.613 94.657 -111.820
87.241 94.685 -112.123
87.873 94.714 -112.406
88.510 94.744 -112.678
89.151 94.775 -112.945
89.797 94.807 -113.203
90.448 94.840 -113.445
91.103 94.876 -113.662
91.763 94.918 -113.867
92.428 94.970 -114.086
93.098 95.028 -114.354
93.773 95.088 -114.694
94.452 95.144 -115.100
95.137 95.192 -115.542
95.826 95.231 -115.988
96.520 95.264 -116.410
97.220 95.293 -116.799
97.924 95.322 -117.152
98.634 95.351 -117.471
99.349 95.384 -117.761
100.069 95.422 -118.035
100.794 95.467 -118.312
101.524 95.517 -118.617
102.260 95.570 -118.964
103.001 95.621 -119.356
103.747 95.667 -119.780
104.499 95.708 -120.218
105.256 95.743 -120.649
106.019 95.774 -121.061
106.787 95.804 -121.452
107.561 95.832 -121.829
108.340 95.860 -122.193
109.126 95.886 -122.540
109.916 95.911 -122.862
110.713 95.938 -123.161
111.515 95.966 -123.446
112.323 95.997 -123.730
113.137 96.028 -124.013
113.957 96.060 -124.294
114.783 96.092 -124.568
115.614 96.125 -124.842
116.452 96.160 -125.123
117.296 96.195 -125.415
118.146 96.229 -125.719
119.002 96.263 -126.033
119.865 96.294 -126.354
120.733 96.324 -126.676
121.608 96.352 -126.995
122.489 96.379 -127.307
123.377 96.407 -127.614
124.271 96.435 -127.922
125.171 96.464 -128.243
126.078 96.492 -128.584
126.992 96.515 -128.934
127.912 96.533 -129.269
128.839 96.551 -129.570
129.773 96.573 -129.850
130.713 96.602 -130.155
131.660 96.631 -130.516
132.615 96.655 -130.930
133.575 96.671 -131.363
134.543 96.678 -131.784
135.518 96.679 -132.164
136.500 96.680 -132.485
137.490 96.686 -132.748
138.486 96.702 -132.984
139.489 96.730 -133.236
140.500 96.765 -133.533
141.518 96.803 -133.881
142.544 96.839 -134.266
143.577 96.873 -134.676
144.617 96.902 -135.097
145.665 96.925 -135.508
146.721 96.945 -135.887
147.784 96.963 -136.231
148.855 96.983 -136.555
149.933 97.003 -136.874
151.020 97.022 -137.187
152.114 97.040 -137.495
153.217 97.059 -137.810
154.327 97.077 -138.148
155.445 97.088 -138.497
156.572 97.094 -138.824
157.706 97.101 -139.116
158.849 97.110 -139.395
160.000 97.122 -139.683
161.159 97.135 -139.980
162.327 97.150 -140.289
163.504 97.164 -140.629
164.688 97.174 -141.003
165.882 97.175 -141.381
167.084 97.170 -141.722
168.295 97.164 -142.009
169.514 97.165 -142.273
170.742 97.170 -142.564
171.980 97.173 -142.901
173.226 97.169 -143.246
174.481 97.160 -143.551
175.746 97.153 -143.805
177.019 97.154 -144.046
178.302 97.161 -144.323
179.594 97.167 -144.648
180.895 97.166 -144.988
182.206 97.161 -145.311
183.527 97.157 -145.608
184.856 97.156 -145.903
186.196 97.156 -146.218
187.545 97.155 -146.555
188.904 97.150 -146.902
190.273 97.139 -147.237
191.652 97.125 -147.536
193.041 97.113 -147.798
194.440 97.103 -148.046
195.849 97.096 -148.292
197.268 97.090 -148.550
198.697 97.083 -148.830
200.137 97.071 -149.122
201.587 97.054 -149.410
203.048 97.031 -149.674
204.520 97.006 -149.882
206.002 96.988 -150.042
207.494 96.979 -150.229
208.998 96.968 -150.476
210.512 96.949 -150.734
212.038 96.926 -150.959
213.574 96.904 -151.166
215.122 96.882 -151.384
216.681 96.855 -151.606
218.251 96.825 -151.801
219.833 96.795 -151.966
221.426 96.766 -152.126
223.030 96.736 -152.295
224.646 96.701 -152.458
226.274 96.663 -152.592
227.914 96.624 -152.694
229.565 96.585 -152.765
231.229 96.547 -152.799
232.905 96.515 -152.800
234.592 96.490 -152.803
236.292 96.468 -152.834
238.004 96.441 -152.863
239.729 96.413 -152.848
241.466 96.390 -152.788
243.216 96.371 -152.705
244.979 96.358 -152.609
246.754 96.350 -152.508
248.542 96.345 -152.415
250.343 96.342 -152.329
252.157 96.341 -152.244
253.984 96.342 -152.180
255.825 96.342 -152.133
257.678 96.344 -152.092
259.546 96.348 -152.080
261.426 96.351 -152.084
263.321 96.355 -152.088
265.229 96.362 -152.128
267.151 96.364 -152.208
269.087 96.359 -152.277
271.037 96.351 -152.308
273.001 96.346 -152.297
274.979 96.350 -152.271
276.972 96.358 -152.278
278.979 96.366 -152.307
281.000 96.373 -152.326
283.037 96.385 -152.350
285.088 96.400 -152.417
287.153 96.413 -152.533
289.234 96.421 -152.668
291.330 96.424 -152.802
293.441 96.424 -152.927
295.568 96.423 -153.034
297.710 96.424 -153.110
299.867 96.433 -153.208
302.040 96.444 -153.380
304.228 96.447 -153.584
306.433 96.446 -153.787
308.654 96.442 -153.993
310.890 96.434 -154.197
313.143 96.421 -154.395
315.412 96.405 -154.585
317.698 96.387 -154.762
320.000 96.373 -154.954
322.319 96.357 -155.192
324.655 96.335 -155.461
327.007 96.304 -155.718
329.377 96.267 -155.930
331.764 96.228 -156.092
334.168 96.186 -156.222
336.589 96.140 -156.311
339.028 96.091 -156.338
341.485 96.045 -156.318
343.959 96.006 -156.280
346.452 95.973 -156.278
348.962 95.938 -156.331
351.491 95.899 -156.398
354.038 95.858 -156.449
356.604 95.818 -156.488
359.188 95.777 -156.517
361.791 95.736 -156.530
364.412 95.694 -156.529
367.053 95.651 -156.529
369.713 95.602 -156.519
372.392 95.551 -156.471
375.090 95.504 -156.391
377.809 95.463 -156.337
380.546 95.417 -156.330
383.304 95.361 -156.312
386.081 95.303 -156.239
388.879 95.250 -156.129
391.697 95.202 -156.013
394.536 95.155 -155.905
397.395 95.106 -155.800
400.274 95.048 -155.672
403.175 94.985 -155.425
406.096 94.935 -155.071
409.039 94.900 -154.750
412.003 94.862 -154.584
414.989 94.791 -154.462
417.996 94.703 -154.208
421.025 94.620 -153.849
424.076 94.550 -153.437
427.149 94.494 -153.000
430.244 94.448 -152.548
433.362 94.412 -152.094
436.502 94.378 -151.660
439.665 94.343 -151.232
442.851 94.306 -150.800
446.060 94.271 -150.382
449.293 94.236 -149.978
452.548 94.204 -149.582
455.828 94.174 -149.202
459.131 94.142 -148.823
462.458 94.110 -148.444
465.809 94.072 -148.089
469.184 94.026 -147.698
472.584 93.980 -147.265
476.009 93.931 -146.821
479.458 93.878 -146.347
482.933 93.822 -145.841
486.432 93.760 -145.301
489.957 93.691 -144.694
493.507 93.620 -143.993
497.084 93.549 -143.194
500.686 93.481 -142.277
504.314 93.422 -141.218
507.968 93.382 -140.025
511.649 93.369 -138.732
515.357 93.392 -137.417
519.091 93.447 -136.180
522.853 93.523 -135.081
526.642 93.609 -134.119
530.458 93.698 -133.293
534.302 93.782 -132.572
538.174 93.865 -131.925
542.074 93.946 -131.337
546.002 94.026 -130.780
549.958 94.108 -130.270
553.943 94.184 -129.849
557.958 94.246 -129.461
562.001 94.299 -129.069
566.073 94.345 -128.661
570.175 94.386 -128.205
574.307 94.429 -127.655
578.469 94.486 -127.045
582.660 94.558 -126.469
586.883 94.638 -125.993
591.135 94.717 -125.614
595.419 94.788 -125.286
599.734 94.853 -124.960
604.080 94.913 -124.617
608.457 94.971 -124.265
612.866 95.027 -123.922
617.307 95.081 -123.587
621.780 95.134 -123.252
626.286 95.185 -122.909
630.824 95.237 -122.553
635.396 95.290 -122.194
640.000 95.346 -121.848
644.638 95.400 -121.514
649.309 95.454 -121.174
654.014 95.505 -120.843
658.753 95.552 -120.509
663.527 95.599 -120.171
668.335 95.647 -119.833
673.178 95.696 -119.480
678.056 95.748 -119.112
682.970 95.803 -118.749
687.919 95.857 -118.397
692.904 95.911 -118.043
697.925 95.964 -117.683
702.982 96.020 -117.322
708.076 96.078 -116.978
713.208 96.138 -116.647
718.376 96.200 -116.322
723.581 96.260 -115.989
728.825 96.319 -115.643
734.106 96.379 -115.306
739.426 96.440 -114.981
744.784 96.503 -114.663
750.181 96.567 -114.354
755.617 96.629 -114.062
761.093 96.689 -113.766
766.608 96.750 -113.468
772.163 96.811 -113.182
777.758 96.871 -112.898
783.394 96.931 -112.605
789.071 96.994 -112.323
794.789 97.058 -112.070
800.548 97.121 -111.830
806.349 97.181 -111.590
812.193 97.239 -111.337
818.078 97.297 -111.062
824.006 97.356 -110.802
829.977 97.411 -110.572
835.992 97.463 -110.343
842.050 97.516 -110.115
848.151 97.568 -109.881
854.297 97.618 -109.629
860.488 97.667 -109.357
866.724 97.717 -109.074
873.004 97.767 -108.784
879.330 97.817 -108.479
885.702 97.870 -108.162
892.120 97.924 -107.845
898.585 97.979 -107.527
905.097 98.032 -107.203
911.655 98.085 -106.869
918.262 98.139 -106.514
924.916 98.198 -106.148
931.618 98.260 -105.789
938.369 98.323 -105.434
945.169 98.387 -105.081
952.018 98.451 -104.727
958.917 98.515 -104.376
965.865 98.582 -104.017
972.864 98.652 -103.653
979.914 98.726 -103.288
987.015 98.802 -102.924
994.167 98.880 -102.570
1,001.371 98.961 -102.224
1,008.628 99.047 -101.893
1,015.937 99.138 -101.589
1,023.299 99.229 -101.314
1,030.714 99.319 -101.063
1,038.183 99.408 -100.841
1,045.706 99.496 -100.646
1,053.283 99.584 -100.476
1,060.916 99.669 -100.319
1,068.604 99.752 -100.171
1,076.347 99.835 -100.037
1,084.147 99.915 -99.911
1,092.003 99.993 -99.790
1,099.916 100.069 -99.678
1,107.887 100.142 -99.569
1,115.915 100.213 -99.463
1,124.001 100.282 -99.363
1,132.146 100.350 -99.262
1,140.350 100.418 -99.159
1,148.614 100.485 -99.054
1,156.937 100.551 -98.953
1,165.321 100.616 -98.868
1,173.765 100.678 -98.799
1,182.271 100.738 -98.747
1,190.838 100.793 -98.715
1,199.467 100.844 -98.700
1,208.159 100.889 -98.702
1,216.914 100.925 -98.720
1,225.732 100.948 -98.747
1,234.614 100.952 -98.752
1,243.561 100.936 -98.673
1,252.572 100.902 -98.446
1,261.649 100.856 -98.003
1,270.791 100.812 -97.276
1,280.000 100.794 -96.266
1,289.275 100.824 -95.081
1,298.618 100.907 -93.899
1,308.028 101.031 -92.868
1,317.507 101.175 -92.051
1,327.054 101.324 -91.434
1,336.670 101.468 -90.974
1,346.357 101.602 -90.621
1,356.113 101.726 -90.321
1,365.940 101.842 -90.040
1,375.838 101.953 -89.763
1,385.808 102.059 -89.481
1,395.850 102.162 -89.188
1,405.965 102.265 -88.883
1,416.153 102.369 -88.567
1,426.415 102.473 -88.243
1,436.751 102.580 -87.920
1,447.163 102.690 -87.601
1,457.649 102.802 -87.296
1,468.212 102.915 -87.006
1,478.851 103.029 -86.724
1,489.568 103.145 -86.449
1,500.362 103.262 -86.182
1,511.234 103.380 -85.924
1,522.185 103.498 -85.681
1,533.215 103.616 -85.454
1,544.326 103.734 -85.235
1,555.517 103.853 -85.023
1,566.789 103.975 -84.821
1,578.142 104.096 -84.630
1,589.578 104.218 -84.447
1,601.097 104.340 -84.276
1,612.699 104.461 -84.118
1,624.385 104.582 -83.966
1,636.156 104.704 -83.820
1,648.012 104.828 -83.682
1,659.955 104.952 -83.554
1,671.983 105.077 -83.434
1,684.099 105.199 -83.323
1,696.303 105.321 -83.218
1,708.595 105.443 -83.112
1,720.976 105.567 -83.004
1,733.447 105.695 -82.898
1,746.008 105.825 -82.804
1,758.661 105.956 -82.732
1,771.405 106.086 -82.684
1,784.241 106.215 -82.652
1,797.170 106.344 -82.631
1,810.193 106.473 -82.618
1,823.311 106.601 -82.604
1,836.523 106.729 -82.594
1,849.831 106.858 -82.589
1,863.236 106.986 -82.584
1,876.738 107.116 -82.581
1,890.338 107.246 -82.591
1,904.036 107.376 -82.609
1,917.833 107.508 -82.631
1,931.730 107.642 -82.655
1,945.729 107.777 -82.688
1,959.828 107.913 -82.731
1,974.030 108.051 -82.787
1,988.334 108.189 -82.858
2,002.743 108.329 -82.944
2,017.255 108.469 -83.040
2,031.873 108.611 -83.147
2,046.597 108.755 -83.268
2,061.428 108.900 -83.407
2,076.365 109.046 -83.566
2,091.412 109.194 -83.742
2,106.567 109.344 -83.940
2,121.832 109.496 -84.172
2,137.208 109.650 -84.438
2,152.695 109.804 -84.742
2,168.294 109.957 -85.098
2,184.007 110.106 -85.510
2,199.833 110.250 -85.977
2,215.774 110.387 -86.495
2,231.830 110.514 -87.057
2,248.003 110.627 -87.645
2,264.293 110.724 -88.217
2,280.701 110.805 -88.729
2,297.228 110.872 -89.131
2,313.874 110.934 -89.389
2,330.642 110.999 -89.493
2,347.530 111.078 -89.451
2,364.542 111.181 -89.289
2,381.676 111.316 -89.068
2,398.935 111.486 -88.881
2,416.318 111.685 -88.827
2,433.828 111.903 -88.962
2,451.464 112.127 -89.301
2,469.229 112.349 -89.836
2,487.122 112.563 -90.550
2,505.145 112.764 -91.416
2,523.298 112.947 -92.392
2,541.583 113.110 -93.455
2,560.000 113.249 -94.570
2,578.551 113.363 -95.679
2,597.236 113.458 -96.742
2,616.057 113.539 -97.736
2,635.014 113.612 -98.648
2,654.108 113.680 -99.467
2,673.341 113.746 -100.200
2,692.713 113.814 -100.860
2,712.226 113.890 -101.456
2,731.879 113.977 -102.014
2,751.676 114.078 -102.565
2,771.615 114.189 -103.142
2,791.700 114.309 -103.768
2,811.930 114.437 -104.472
2,832.306 114.569 -105.276
2,852.830 114.699 -106.185
2,873.503 114.826 -107.195
2,894.325 114.945 -108.301
2,915.299 115.055 -109.493
2,936.424 115.151 -110.748
2,957.703 115.233 -112.046
2,979.136 115.303 -113.382
3,000.724 115.357 -114.759
3,022.468 115.395 -116.164
3,044.370 115.415 -117.586
3,066.431 115.417 -119.007
3,088.652 115.400 -120.398
3,111.033 115.363 -121.734
3,133.577 115.304 -122.977
3,156.284 115.231 -124.107
3,179.156 115.150 -125.120
3,202.193 115.065 -126.016
3,225.398 114.980 -126.803
3,248.771 114.894 -127.497
3,272.312 114.808 -128.106
3,296.025 114.725 -128.629
3,319.909 114.643 -129.077
3,343.967 114.567 -129.469
3,368.198 114.495 -129.829
3,392.606 114.424 -130.155
3,417.190 114.354 -130.432
3,441.952 114.282 -130.660
3,466.894 114.210 -130.845
3,492.017 114.137 -130.982
3,517.321 114.062 -131.053
3,542.809 113.989 -131.023
3,568.482 113.920 -130.883
3,594.341 113.861 -130.656
3,620.387 113.811 -130.366
3,646.622 113.766 -130.024
3,673.046 113.724 -129.629
3,699.663 113.685 -129.159
3,726.472 113.654 -128.584
3,753.476 113.638 -127.900
3,780.675 113.640 -127.107
3,808.071 113.660 -126.200
3,835.666 113.703 -125.207
3,863.461 113.773 -124.168
3,891.457 113.873 -123.114
3,919.656 113.998 -122.073
3,948.060 114.150 -121.034
3,976.669 114.332 -119.989
4,005.486 114.549 -118.971
4,034.511 114.802 -118.031
4,063.747 115.087 -117.207
4,093.194 115.398 -116.524
4,122.855 115.737 -115.988
4,152.731 116.103 -115.634
4,182.824 116.491 -115.473
4,213.134 116.898 -115.497
4,243.664 117.327 -115.721
4,274.416 117.779 -116.167
4,305.390 118.250 -116.857
4,336.588 118.742 -117.830
4,368.013 119.251 -119.097
4,399.666 119.775 -120.717
4,431.547 120.293 -122.778
4,463.660 120.781 -125.300
4,496.005 121.201 -128.306
4,528.585 121.529 -131.809
4,561.401 121.776 -135.823
4,594.455 121.960 -140.396
4,627.749 122.088 -145.632
4,661.283 122.171 -151.630
4,695.061 122.218 -158.382
4,729.083 122.224 -165.769
4,763.352 122.184 -173.520
4,797.869 122.106 178.655
4,832.637 121.982 171.117
4,867.656 121.796 164.312
4,902.929 121.504 158.563
4,938.458 121.053 153.962
4,974.244 120.434 150.517
5,010.289 119.683 147.988
5,046.596 118.864 146.062
5,083.166 118.048 144.654
5,120.000 117.273 143.805
5,157.102 116.548 143.411
5,194.472 115.869 143.353
5,232.113 115.231 143.588
5,270.027 114.635 144.062
5,308.216 114.080 144.735
5,346.682 113.565 145.579
5,385.426 113.096 146.547
5,424.451 112.669 147.567
5,463.759 112.273 148.626
5,503.352 111.908 149.723
5,543.231 111.575 150.807
5,583.399 111.268 151.853
5,623.859 110.976 152.862
5,664.612 110.698 153.836
5,705.660 110.433 154.787
5,747.006 110.176 155.743
5,788.651 109.926 156.717
5,830.598 109.685 157.691
5,872.849 109.450 158.667
5,915.406 109.221 159.653
5,958.271 108.998 160.648
6,001.447 108.781 161.674
6,044.937 108.570 162.769
6,088.740 108.368 163.939
6,132.862 108.177 165.175
6,177.303 108.002 166.450
6,222.066 107.843 167.720
6,267.154 107.694 168.971
6,312.568 107.557 170.225
6,358.312 107.433 171.488
6,404.387 107.318 172.767
6,450.796 107.214 174.051
6,497.541 107.119 175.318
6,544.625 107.034 176.583
6,592.050 106.964 177.846
6,639.818 106.907 179.090
6,687.934 106.858 -179.688
6,736.397 106.820 -178.490
6,785.211 106.791 -177.308
6,834.380 106.771 -176.153
6,883.905 106.759 -175.052
6,933.789 106.753 -173.992
6,984.034 106.754 -172.953
7,034.643 106.765 -171.918
7,085.619 106.784 -170.903
7,136.964 106.810 -169.936
7,188.681 106.840 -169.012
7,240.773 106.879 -168.120
7,293.243 106.926 -167.257
7,346.093 106.979 -166.431
7,399.326 107.042 -165.643
7,452.944 107.114 -164.894
7,506.951 107.189 -164.183
7,561.350 107.269 -163.513
7,616.143 107.352 -162.882
7,671.332 107.442 -162.265
7,726.922 107.546 -161.651
7,782.915 107.668 -161.048
7,839.312 107.808 -160.490
7,896.120 107.971 -160.009
7,953.338 108.158 -159.648
8,010.971 108.367 -159.474
8,069.022 108.590 -159.555
8,127.493 108.820 -159.911
8,186.389 109.053 -160.540
8,245.711 109.280 -161.452
8,305.462 109.491 -162.662
8,365.647 109.677 -164.155
8,426.268 109.828 -165.895
8,487.328 109.938 -167.854
8,548.831 110.001 -169.972
8,610.779 110.017 -172.165
8,673.177 109.984 -174.369
8,736.026 109.902 -176.533
8,799.331 109.777 -178.591
8,863.095 109.615 179.495
8,927.320 109.422 177.720
8,992.011 109.203 176.101
9,057.171 108.967 174.682
9,122.803 108.719 173.483
9,188.910 108.462 172.458
9,255.497 108.197 171.546
9,322.566 107.920 170.697
9,390.121 107.630 169.920
9,458.166 107.329 169.304
9,526.704 107.022 168.918
9,595.738 106.709 168.755
9,665.273 106.394 168.815
9,735.312 106.083 169.118
9,805.857 105.790 169.641
9,876.915 105.523 170.315
9,948.487 105.280 171.057
10,020.578 105.059 171.851
10,093.191 104.865 172.695
10,166.331 104.692 173.557
10,240.000 104.535 174.400
10,314.203 104.391 175.216
10,388.944 104.254 176.000
10,464.227 104.126 176.773
10,540.055 104.005 177.579
10,616.433 103.891 178.433
10,693.363 103.785 179.334
10,770.853 103.693 -179.722
10,848.902 103.616 -178.745
10,927.518 103.559 -177.760
11,006.703 103.520 -176.797
11,086.462 103.503 -175.848
11,166.799 103.512 -174.946
11,247.719 103.539 -174.143
11,329.224 103.591 -173.447
11,411.320 103.665 -172.868
11,494.012 103.758 -172.455
11,577.302 103.866 -172.250
11,661.195 103.983 -172.256
11,745.697 104.109 -172.461
11,830.812 104.233 -172.900
11,916.543 104.346 -173.622
12,002.895 104.441 -174.627
12,089.873 104.506 -175.904
12,177.480 104.523 -177.426
12,265.724 104.486 -179.046
12,354.606 104.402 179.399
12,444.133 104.262 177.978
12,534.309 104.079 176.783
12,625.137 103.871 175.932
12,716.624 103.654 175.469
12,808.773 103.454 175.370
12,901.592 103.291 175.554
12,995.082 103.185 175.922
13,089.250 103.154 176.356
13,184.100 103.199 176.662
13,279.637 103.305 176.618
13,375.867 103.449 176.059
13,472.794 103.600 174.904
13,570.423 103.726 173.154
13,668.760 103.804 170.927
13,767.810 103.818 168.395
13,867.577 103.757 165.716
13,968.067 103.626 163.065
14,069.285 103.441 160.598
14,171.237 103.221 158.339
14,273.928 102.982 156.214
14,377.362 102.740 154.207
14,481.547 102.509 152.322
14,586.486 102.284 150.452
14,692.186 102.055 148.494
14,798.651 101.817 146.432
14,905.889 101.563 144.280
15,013.902 101.292 142.050
15,122.700 101.002 139.725
15,232.285 100.694 137.266
15,342.664 100.365 134.670
15,453.844 100.009 131.951
15,565.829 99.612 129.100
15,678.625 99.162 126.150
15,792.239 98.652 123.150
15,906.676 98.066 120.162
16,021.942 97.388 117.409
16,138.044 96.616 115.300
16,254.986 95.794 114.206
16,372.777 95.021 114.109
16,491.422 94.385 114.550
16,610.924 93.919 114.796
16,731.295 93.576 114.137
16,852.535 93.249 112.338
16,974.656 92.843 109.637
17,097.662 92.304 106.438
17,221.559 91.625 103.124
17,346.354 90.815 99.916
17,472.053 89.870 96.953
17,598.662 88.782 94.502
17,726.189 87.564 92.992
17,854.641 86.264 92.785
17,984.021 84.956 93.916
18,114.342 83.724 96.035
18,245.605 82.606 98.562
18,377.820 81.559 101.163
18,510.994 80.519 103.986
18,645.133 79.468 107.451
18,780.242 78.441 111.870
18,916.332 77.510 117.301
19,053.408 76.767 123.526
19,191.477 76.272 129.983
19,330.547 76.023 135.896
19,470.623 75.965 140.685
19,611.715 76.002 144.153
19,753.830 76.057 146.404
19,896.975 76.088 147.677
