* Measurement data measured by REW V5.20 Beta 4
* Source: Microphone (E.A.R.S Gain: 18dB  ), no input selected, L, volume: no control
* Format: 256k Log Swept Sine, 1 sweep at -8.0 dBFS  With no timing reference
* Dated: Jan 28, 2019 11:32:59 AM
* REW Settings:
*  C-weighting compensation: Off
*  Target level: 75.0 dB
* Note: ; Really big difference between R & L. We had to adjust fit several times to get a good measurement
* Measurement: Bose QC 35 II L
* Smoothing: 1/48 octave
* Frequency Step: 1/96 octave
* Start Frequency: 20.1 Hz
*
* Freq(Hz) SPL(dB) Phase(degrees)
20.145 86.237 -159.376
20.291 86.311 -159.718
20.438 86.385 -160.280
20.586 86.492 -161.155
20.735 86.661 -162.378
20.885 86.830 -163.601
21.037 86.979 -164.689
21.189 87.121 -165.733
21.343 87.258 -166.731
21.497 87.389 -167.683
21.653 87.520 -168.643
21.810 87.653 -169.619
21.968 87.784 -170.591
22.127 87.914 -171.552
22.288 88.042 -172.506
22.449 88.168 -173.448
22.612 88.293 -174.380
22.776 88.418 -175.309
22.941 88.541 -176.235
23.107 88.664 -177.157
23.274 88.786 -178.073
23.443 88.907 -178.987
23.613 89.027 -179.899
23.784 89.147 179.190
23.956 89.266 178.279
24.130 89.383 177.366
24.305 89.500 176.452
24.481 89.616 175.536
24.658 89.730 174.617
24.837 89.844 173.696
25.017 89.955 172.772
25.198 90.065 171.846
25.381 90.174 170.918
25.565 90.281 169.988
25.750 90.386 169.057
25.937 90.489 168.126
26.125 90.590 167.195
26.314 90.690 166.265
26.505 90.788 165.336
26.697 90.884 164.410
26.890 90.979 163.486
27.085 91.072 162.565
27.281 91.163 161.646
27.479 91.253 160.731
27.678 91.342 159.819
27.879 91.430 158.910
28.081 91.517 158.003
28.284 91.602 157.099
28.489 91.687 156.197
28.696 91.771 155.296
28.904 91.853 154.396
29.113 91.935 153.496
29.324 92.016 152.596
29.537 92.095 151.695
29.751 92.174 150.794
29.966 92.251 149.892
30.183 92.327 148.990
30.402 92.402 148.088
30.622 92.475 147.185
30.844 92.547 146.284
31.068 92.618 145.383
31.293 92.687 144.485
31.520 92.754 143.590
31.748 92.820 142.698
31.978 92.885 141.809
32.210 92.948 140.926
32.443 93.010 140.048
32.678 93.071 139.175
32.915 93.131 138.308
33.154 93.190 137.446
33.394 93.248 136.590
33.636 93.306 135.737
33.880 93.363 134.888
34.125 93.420 134.040
34.372 93.476 133.193
34.621 93.531 132.345
34.872 93.585 131.495
35.125 93.638 130.643
35.380 93.688 129.791
35.636 93.737 128.939
35.894 93.783 128.091
36.154 93.826 127.249
36.416 93.867 126.417
36.680 93.905 125.599
36.946 93.941 124.797
37.214 93.975 124.014
37.483 94.008 123.251
37.755 94.041 122.509
38.029 94.073 121.787
38.304 94.106 121.082
38.582 94.139 120.392
38.861 94.174 119.715
39.143 94.209 119.048
39.427 94.246 118.388
39.712 94.283 117.733
40.000 94.321 117.081
40.290 94.360 116.432
40.582 94.400 115.784
40.876 94.440 115.135
41.172 94.480 114.483
41.470 94.521 113.827
41.771 94.562 113.165
42.074 94.602 112.495
42.379 94.641 111.817
42.686 94.680 111.129
42.995 94.716 110.433
43.306 94.750 109.729
43.620 94.782 109.019
43.936 94.811 108.306
44.255 94.836 107.590
44.575 94.858 106.876
44.898 94.877 106.166
45.224 94.892 105.461
45.552 94.904 104.764
45.882 94.911 104.077
46.214 94.915 103.402
46.549 94.914 102.742
46.886 94.909 102.101
47.226 94.899 101.484
47.568 94.884 100.901
47.913 94.864 100.362
48.260 94.841 99.877
48.610 94.815 99.456
48.962 94.790 99.105
49.317 94.768 98.824
49.674 94.751 98.606
50.034 94.742 98.441
50.397 94.743 98.309
50.762 94.753 98.193
51.130 94.772 98.077
51.500 94.798 97.946
51.874 94.830 97.795
52.249 94.866 97.622
52.628 94.904 97.428
53.009 94.944 97.217
53.394 94.986 96.993
53.781 95.029 96.759
54.170 95.073 96.513
54.563 95.118 96.255
54.958 95.164 95.980
55.356 95.210 95.688
55.758 95.256 95.379
56.162 95.299 95.058
56.569 95.340 94.730
56.978 95.379 94.404
57.391 95.415 94.086
57.807 95.449 93.784
58.226 95.484 93.500
58.648 95.519 93.234
59.073 95.555 92.983
59.501 95.594 92.743
59.932 95.635 92.509
60.367 95.678 92.277
60.804 95.724 92.042
61.245 95.772 91.803
61.688 95.821 91.559
62.135 95.872 91.307
62.586 95.924 91.048
63.039 95.976 90.781
63.496 96.030 90.503
63.956 96.084 90.217
64.420 96.138 89.921
64.886 96.192 89.618
65.357 96.246 89.308
65.830 96.299 88.993
66.307 96.352 88.677
66.788 96.405 88.358
67.272 96.458 88.038
67.759 96.511 87.715
68.250 96.565 87.387
68.745 96.619 87.053
69.243 96.673 86.712
69.745 96.726 86.363
70.250 96.779 86.008
70.759 96.831 85.650
71.272 96.882 85.292
71.788 96.933 84.934
72.309 96.983 84.576
72.833 97.035 84.217
73.360 97.086 83.853
73.892 97.139 83.479
74.427 97.190 83.094
74.967 97.241 82.698
75.510 97.290 82.296
76.057 97.337 81.891
76.608 97.382 81.489
77.163 97.426 81.095
77.723 97.471 80.706
78.286 97.516 80.319
78.853 97.562 79.931
79.424 97.608 79.536
80.000 97.654 79.133
80.580 97.700 78.720
81.164 97.745 78.298
81.752 97.789 77.868
82.344 97.831 77.431
82.941 97.871 76.990
83.542 97.910 76.546
84.147 97.947 76.104
84.757 97.982 75.666
85.371 98.016 75.230
85.990 98.050 74.796
86.613 98.083 74.359
87.241 98.115 73.918
87.873 98.145 73.474
88.510 98.174 73.032
89.151 98.201 72.595
89.797 98.227 72.161
90.448 98.254 71.725
91.103 98.281 71.273
91.763 98.306 70.797
92.428 98.325 70.301
93.098 98.338 69.799
93.773 98.344 69.314
94.452 98.346 68.856
95.137 98.344 68.428
95.826 98.341 68.026
96.520 98.336 67.651
97.220 98.331 67.302
97.924 98.326 66.976
98.634 98.322 66.660
99.349 98.317 66.346
100.069 98.309 66.041
100.794 98.298 65.769
101.524 98.285 65.548
102.260 98.276 65.377
103.001 98.275 65.231
103.747 98.281 65.073
104.499 98.291 64.880
105.256 98.302 64.644
106.019 98.307 64.365
106.787 98.303 64.056
107.561 98.284 63.757
108.340 98.249 63.541
109.126 98.206 63.486
109.916 98.172 63.612
110.713 98.161 63.863
111.515 98.180 64.125
112.323 98.222 64.300
113.137 98.272 64.348
113.957 98.321 64.288
114.783 98.363 64.165
115.614 98.397 64.023
116.452 98.426 63.885
117.296 98.454 63.754
118.146 98.481 63.618
119.002 98.506 63.468
119.865 98.527 63.314
120.733 98.542 63.180
121.608 98.555 63.086
122.489 98.571 63.031
123.377 98.591 62.991
124.271 98.616 62.938
125.171 98.641 62.865
126.078 98.663 62.784
126.992 98.683 62.719
127.912 98.703 62.690
128.839 98.728 62.692
129.773 98.763 62.683
130.713 98.802 62.612
131.660 98.836 62.463
132.615 98.853 62.303
133.575 98.857 62.238
134.543 98.866 62.323
135.518 98.895 62.489
136.500 98.947 62.604
137.490 99.005 62.590
138.486 99.056 62.487
139.489 99.094 62.381
140.500 99.129 62.319
141.518 99.168 62.286
142.544 99.211 62.251
143.577 99.257 62.196
144.617 99.302 62.117
145.665 99.345 62.023
146.721 99.385 61.929
147.784 99.423 61.855
148.855 99.462 61.803
149.933 99.505 61.759
151.020 99.549 61.708
152.114 99.594 61.647
153.217 99.639 61.579
154.327 99.683 61.506
155.445 99.726 61.436
156.572 99.770 61.368
157.706 99.813 61.295
158.849 99.854 61.224
160.000 99.896 61.160
161.159 99.938 61.102
162.327 99.979 61.052
163.504 100.022 61.025
164.688 100.070 61.008
165.882 100.122 60.979
167.084 100.177 60.933
168.295 100.235 60.878
169.514 100.296 60.800
170.742 100.357 60.688
171.980 100.417 60.552
173.226 100.475 60.412
174.481 100.534 60.261
175.746 100.592 60.088
177.019 100.646 59.894
178.302 100.694 59.703
179.594 100.739 59.540
180.895 100.784 59.404
182.206 100.830 59.284
183.527 100.876 59.181
184.856 100.925 59.102
186.196 100.978 59.034
187.545 101.037 58.951
188.904 101.099 58.829
190.273 101.159 58.667
191.652 101.214 58.475
193.041 101.264 58.279
194.440 101.312 58.107
195.849 101.363 57.937
197.268 101.415 57.722
198.697 101.455 57.509
200.137 101.493 57.381
201.587 101.542 57.319
203.048 101.603 57.239
204.520 101.669 57.099
206.002 101.730 56.919
207.494 101.785 56.755
208.998 101.840 56.642
210.512 101.903 56.550
212.038 101.972 56.442
213.574 102.046 56.323
215.122 102.125 56.186
216.681 102.211 55.995
218.251 102.297 55.735
219.833 102.377 55.430
221.426 102.454 55.108
223.030 102.528 54.783
224.646 102.604 54.443
226.274 102.681 54.066
227.914 102.755 53.645
229.565 102.823 53.183
231.229 102.884 52.701
232.905 102.937 52.230
234.592 102.990 51.786
236.292 103.045 51.340
238.004 103.101 50.861
239.729 103.152 50.360
241.466 103.200 49.879
243.216 103.249 49.416
244.979 103.299 48.927
246.754 103.342 48.417
248.542 103.379 47.938
250.343 103.416 47.483
252.157 103.454 47.007
253.984 103.489 46.504
255.825 103.521 45.980
257.678 103.546 45.429
259.546 103.563 44.879
261.426 103.574 44.373
263.321 103.589 43.893
265.229 103.604 43.381
267.151 103.613 42.850
269.087 103.615 42.348
271.037 103.617 41.878
273.001 103.621 41.410
274.979 103.623 40.927
276.972 103.620 40.442
278.979 103.612 39.973
281.000 103.603 39.516
283.037 103.592 39.063
285.088 103.577 38.618
287.153 103.558 38.198
289.234 103.538 37.811
291.330 103.518 37.454
293.441 103.499 37.120
295.568 103.478 36.801
297.710 103.456 36.508
299.867 103.433 36.242
302.040 103.409 35.996
304.228 103.385 35.769
306.433 103.358 35.567
308.654 103.330 35.407
310.890 103.306 35.288
313.143 103.288 35.178
315.412 103.272 35.054
317.698 103.256 34.928
320.000 103.240 34.822
322.319 103.229 34.727
324.655 103.221 34.618
327.007 103.214 34.492
329.377 103.206 34.360
331.764 103.196 34.232
334.168 103.185 34.118
336.589 103.175 34.028
339.028 103.167 33.947
341.485 103.160 33.865
343.959 103.153 33.786
346.452 103.147 33.712
348.962 103.142 33.633
351.491 103.135 33.553
354.038 103.126 33.489
356.604 103.117 33.448
359.188 103.109 33.426
361.791 103.104 33.420
364.412 103.101 33.416
367.053 103.099 33.409
369.713 103.096 33.408
372.392 103.095 33.416
375.090 103.094 33.427
377.809 103.094 33.433
380.546 103.094 33.436
383.304 103.094 33.441
386.081 103.093 33.457
388.879 103.093 33.489
391.697 103.095 33.529
394.536 103.098 33.566
397.395 103.101 33.605
400.274 103.104 33.662
403.175 103.111 33.733
406.096 103.120 33.805
409.039 103.131 33.893
412.003 103.147 33.995
414.989 103.169 34.063
417.996 103.189 34.097
421.025 103.207 34.138
424.076 103.226 34.193
427.149 103.247 34.254
430.244 103.267 34.314
433.362 103.287 34.378
436.502 103.309 34.451
439.665 103.332 34.523
442.851 103.355 34.588
446.060 103.380 34.649
449.293 103.404 34.707
452.548 103.430 34.763
455.828 103.456 34.813
459.131 103.482 34.859
462.458 103.510 34.904
465.809 103.539 34.946
469.184 103.568 34.990
472.584 103.599 35.039
476.009 103.630 35.093
479.458 103.663 35.151
482.933 103.698 35.211
486.432 103.734 35.268
489.957 103.772 35.317
493.507 103.810 35.361
497.084 103.850 35.399
500.686 103.890 35.435
504.314 103.931 35.472
507.968 103.973 35.512
511.649 104.017 35.551
515.357 104.063 35.586
519.091 104.110 35.610
522.853 104.157 35.619
526.642 104.204 35.623
530.458 104.252 35.622
534.302 104.300 35.610
538.174 104.348 35.599
542.074 104.398 35.587
546.002 104.449 35.568
549.958 104.502 35.545
553.943 104.557 35.511
557.958 104.614 35.456
562.001 104.669 35.399
566.073 104.725 35.350
570.175 104.783 35.298
574.307 104.843 35.231
578.469 104.904 35.153
582.660 104.964 35.071
586.883 105.026 34.977
591.135 105.087 34.870
595.419 105.148 34.751
599.734 105.210 34.620
604.080 105.272 34.479
608.457 105.333 34.331
612.866 105.395 34.177
617.307 105.456 34.013
621.780 105.516 33.841
626.286 105.576 33.662
630.824 105.635 33.485
635.396 105.694 33.313
640.000 105.754 33.149
644.638 105.818 32.989
649.309 105.885 32.828
654.014 105.956 32.655
658.753 106.030 32.460
663.527 106.107 32.237
668.335 106.184 31.985
673.178 106.262 31.705
678.056 106.340 31.404
682.970 106.418 31.077
687.919 106.496 30.725
692.904 106.572 30.355
697.925 106.646 29.972
702.982 106.720 29.574
708.076 106.794 29.162
713.208 106.867 28.735
718.376 106.938 28.292
723.581 107.009 27.839
728.825 107.080 27.372
734.106 107.152 26.880
739.426 107.223 26.362
744.784 107.293 25.820
750.181 107.362 25.259
755.617 107.430 24.675
761.093 107.497 24.067
766.608 107.564 23.432
772.163 107.629 22.768
777.758 107.694 22.073
783.394 107.756 21.347
789.071 107.814 20.600
794.789 107.871 19.827
800.548 107.925 19.020
806.349 107.975 18.177
812.193 108.020 17.308
818.078 108.059 16.421
824.006 108.093 15.518
829.977 108.122 14.598
835.992 108.146 13.652
842.050 108.162 12.687
848.151 108.171 11.710
854.297 108.173 10.723
860.488 108.167 9.734
866.724 108.154 8.754
873.004 108.135 7.781
879.330 108.110 6.812
885.702 108.079 5.850
892.120 108.041 4.902
898.585 107.998 3.975
905.097 107.951 3.069
911.655 107.898 2.185
918.262 107.842 1.333
924.916 107.786 0.510
931.618 107.728 -0.301
938.369 107.667 -1.106
945.169 107.604 -1.900
952.018 107.537 -2.677
958.917 107.468 -3.440
965.865 107.397 -4.192
972.864 107.323 -4.931
979.914 107.247 -5.661
987.015 107.167 -6.390
994.167 107.083 -7.114
1,001.371 106.994 -7.823
1,008.628 106.901 -8.516
1,015.937 106.804 -9.191
1,023.299 106.703 -9.844
1,030.714 106.597 -10.468
1,038.183 106.488 -11.060
1,045.706 106.378 -11.620
1,053.283 106.266 -12.151
1,060.916 106.155 -12.657
1,068.604 106.042 -13.139
1,076.347 105.929 -13.603
1,084.147 105.816 -14.052
1,092.003 105.703 -14.482
1,099.916 105.590 -14.896
1,107.887 105.477 -15.296
1,115.915 105.362 -15.686
1,124.001 105.245 -16.066
1,132.146 105.127 -16.432
1,140.350 105.007 -16.782
1,148.614 104.886 -17.118
1,156.937 104.764 -17.448
1,165.321 104.637 -17.770
1,173.765 104.507 -18.067
1,182.271 104.374 -18.335
1,190.838 104.240 -18.584
1,199.467 104.104 -18.819
1,208.159 103.965 -19.033
1,216.914 103.824 -19.218
1,225.732 103.680 -19.373
1,234.614 103.536 -19.498
1,243.561 103.391 -19.598
1,252.572 103.247 -19.677
1,261.649 103.102 -19.729
1,270.791 102.955 -19.747
1,280.000 102.809 -19.738
1,289.275 102.664 -19.704
1,298.618 102.518 -19.644
1,308.028 102.372 -19.552
1,317.507 102.226 -19.423
1,327.054 102.083 -19.269
1,336.670 101.943 -19.098
1,346.357 101.804 -18.911
1,356.113 101.667 -18.717
1,365.940 101.531 -18.525
1,375.838 101.394 -18.336
1,385.808 101.250 -18.146
1,395.850 101.095 -17.896
1,405.965 100.938 -17.521
1,416.153 100.797 -17.057
1,426.415 100.676 -16.627
1,436.751 100.560 -16.294
1,447.163 100.438 -16.031
1,457.649 100.307 -15.786
1,468.212 100.167 -15.531
1,478.851 100.019 -15.254
1,489.568 99.864 -14.950
1,500.362 99.705 -14.604
1,511.234 99.540 -14.202
1,522.185 99.373 -13.734
1,533.215 99.202 -13.202
1,544.326 99.030 -12.602
1,555.517 98.855 -11.923
1,566.789 98.680 -11.157
1,578.142 98.506 -10.301
1,589.578 98.338 -9.348
1,601.097 98.180 -8.305
1,612.699 98.037 -7.197
1,624.385 97.908 -6.060
1,636.156 97.790 -4.926
1,648.012 97.678 -3.803
1,659.955 97.570 -2.664
1,671.983 97.469 -1.493
1,684.099 97.377 -0.307
1,696.303 97.292 0.881
1,708.595 97.214 2.066
1,720.976 97.143 3.233
1,733.447 97.075 4.379
1,746.008 97.008 5.515
1,758.661 96.941 6.656
1,771.405 96.877 7.817
1,784.241 96.815 9.004
1,797.170 96.758 10.214
1,810.193 96.707 11.440
1,823.311 96.661 12.664
1,836.523 96.617 13.897
1,849.831 96.576 15.150
1,863.236 96.538 16.432
1,876.738 96.506 17.735
1,890.338 96.478 19.055
1,904.036 96.457 20.399
1,917.833 96.445 21.763
1,931.730 96.441 23.137
1,945.729 96.445 24.516
1,959.828 96.460 25.891
1,974.030 96.483 27.233
1,988.334 96.511 28.534
2,002.743 96.540 29.807
2,017.255 96.570 31.071
2,031.873 96.601 32.339
2,046.597 96.633 33.632
2,061.428 96.666 34.992
2,076.365 96.714 36.473
2,091.412 96.802 37.997
2,106.567 96.927 39.340
2,121.832 97.061 40.405
2,137.208 97.183 41.250
2,152.695 97.287 41.977
2,168.294 97.375 42.650
2,184.007 97.449 43.291
2,199.833 97.509 43.915
2,215.774 97.556 44.548
2,231.830 97.590 45.215
2,248.003 97.615 45.926
2,264.293 97.634 46.674
2,280.701 97.649 47.464
2,297.228 97.660 48.291
2,313.874 97.667 49.131
2,330.642 97.667 49.979
2,347.530 97.652 50.849
2,364.542 97.617 51.798
2,381.676 97.563 52.915
2,398.935 97.501 54.255
2,416.318 97.442 55.828
2,433.828 97.396 57.607
2,451.464 97.367 59.576
2,469.229 97.358 61.724
2,487.122 97.373 64.052
2,505.145 97.419 66.556
2,523.298 97.500 69.205
2,541.583 97.624 71.951
2,560.000 97.795 74.745
2,578.551 98.014 77.536
2,597.236 98.280 80.282
2,616.057 98.594 82.946
2,635.014 98.955 85.485
2,654.108 99.362 87.841
2,673.341 99.812 89.948
2,692.713 100.297 91.755
2,712.226 100.812 93.218
2,731.879 101.343 94.298
2,751.676 101.879 94.973
2,771.615 102.405 95.249
2,791.700 102.911 95.160
2,811.930 103.390 94.754
2,832.306 103.839 94.051
2,852.830 104.246 93.080
2,873.503 104.601 91.927
2,894.325 104.901 90.715
2,915.299 105.153 89.558
2,936.424 105.369 88.523
2,957.703 105.562 87.627
2,979.136 105.740 86.855
3,000.724 105.906 86.185
3,022.468 106.058 85.599
3,044.370 106.196 85.124
3,066.431 106.326 84.799
3,088.652 106.457 84.611
3,111.033 106.591 84.530
3,133.577 106.728 84.551
3,156.284 106.867 84.693
3,179.156 107.014 84.986
3,202.193 107.184 85.436
3,225.398 107.390 85.994
3,248.771 107.644 86.515
3,272.312 107.929 86.817
3,296.025 108.209 86.817
3,319.909 108.448 86.650
3,343.967 108.636 86.652
3,368.198 108.810 87.178
3,392.606 109.050 88.315
3,417.190 109.432 89.669
3,441.952 109.945 90.534
3,466.894 110.493 90.550
3,492.017 111.010 89.985
3,517.321 111.501 89.141
3,542.809 111.983 88.061
3,568.482 112.453 86.698
3,594.341 112.897 85.054
3,620.387 113.304 83.227
3,646.622 113.678 81.402
3,673.046 114.054 79.673
3,699.663 114.465 77.804
3,726.472 114.878 75.426
3,753.476 115.235 72.562
3,780.675 115.516 69.513
3,808.071 115.732 66.489
3,835.666 115.895 63.583
3,863.461 116.016 60.839
3,891.457 116.102 58.306
3,919.656 116.167 56.027
3,948.060 116.226 54.016
3,976.669 116.295 52.266
4,005.486 116.385 50.747
4,034.511 116.505 49.373
4,063.747 116.661 48.049
4,093.194 116.853 46.703
4,122.855 117.076 45.267
4,152.731 117.328 43.685
4,182.824 117.604 41.918
4,213.134 117.903 39.927
4,243.664 118.223 37.681
4,274.416 118.557 35.125
4,305.390 118.895 32.202
4,336.588 119.229 28.879
4,368.013 119.553 25.110
4,399.666 119.852 20.861
4,431.547 120.106 16.135
4,463.660 120.294 10.955
4,496.005 120.400 5.396
4,528.585 120.407 -0.422
4,561.401 120.306 -6.329
4,594.455 120.104 -12.129
4,627.749 119.819 -17.719
4,661.283 119.453 -23.091
4,695.061 119.002 -28.142
4,729.083 118.480 -32.731
4,763.352 117.912 -36.814
4,797.869 117.318 -40.401
4,832.637 116.709 -43.534
4,867.656 116.091 -46.259
4,902.929 115.475 -48.624
4,938.458 114.870 -50.690
4,974.244 114.275 -52.526
5,010.289 113.684 -54.185
5,046.596 113.097 -55.675
5,083.166 112.514 -56.998
5,120.000 111.931 -58.193
5,157.102 111.347 -59.328
5,194.472 110.745 -60.411
5,232.113 110.109 -61.325
5,270.027 109.441 -61.974
5,308.216 108.751 -62.371
5,346.682 108.029 -62.549
5,385.426 107.238 -62.404
5,424.451 106.334 -61.393
5,463.759 105.342 -58.509
5,503.352 104.480 -53.322
5,543.231 104.002 -47.307
5,583.399 103.805 -41.837
5,623.859 103.815 -36.410
5,664.612 104.153 -31.706
5,705.660 104.664 -29.175
5,747.006 105.116 -28.746
5,788.651 105.433 -29.579
5,830.598 105.622 -31.141
5,872.849 105.689 -33.209
5,915.406 105.612 -35.560
5,958.271 105.377 -37.850
6,001.447 105.003 -39.669
6,044.937 104.538 -40.757
6,088.740 104.035 -41.113
6,132.862 103.522 -40.832
6,177.303 103.010 -39.956
6,222.066 102.510 -38.476
6,267.154 102.046 -36.411
6,312.568 101.644 -33.848
6,358.312 101.323 -30.917
6,404.387 101.096 -27.771
6,450.796 100.965 -24.553
6,497.541 100.923 -21.379
6,544.625 100.969 -18.355
6,592.050 101.100 -15.593
6,639.818 101.308 -13.238
6,687.934 101.575 -11.430
6,736.397 101.878 -10.247
6,785.211 102.195 -9.746
6,834.380 102.494 -9.987
6,883.905 102.738 -10.933
6,933.789 102.894 -12.391
6,984.034 102.952 -14.162
7,034.643 102.904 -16.129
7,085.619 102.737 -18.149
7,136.964 102.439 -19.921
7,188.681 102.013 -20.980
7,240.773 101.496 -20.954
7,293.243 100.957 -19.706
7,346.093 100.473 -17.254
7,399.326 100.122 -13.777
7,452.944 99.971 -9.623
7,506.951 100.053 -5.406
7,561.350 100.341 -1.744
7,616.143 100.769 0.973
7,671.332 101.262 2.538
7,726.922 101.749 2.990
7,782.915 102.199 2.574
7,839.312 102.606 1.462
7,896.120 102.954 -0.286
7,953.338 103.217 -2.651
8,010.971 103.365 -5.544
8,069.022 103.367 -8.685
8,127.493 103.231 -11.670
8,186.389 102.989 -14.251
8,245.711 102.648 -16.411
8,305.462 102.188 -17.924
8,365.647 101.621 -18.023
8,426.268 101.095 -16.161
8,487.328 100.837 -13.104
8,548.831 100.890 -10.387
8,610.779 101.106 -8.925
8,673.177 101.328 -8.696
8,736.026 101.489 -9.188
8,799.331 101.601 -10.043
8,863.095 101.678 -11.256
8,927.320 101.704 -12.850
8,992.011 101.651 -14.698
9,057.171 101.502 -16.556
9,122.803 101.266 -18.132
9,188.910 100.974 -19.248
9,255.497 100.662 -19.893
9,322.566 100.369 -20.159
9,390.121 100.112 -20.198
9,458.166 99.883 -20.176
9,526.704 99.672 -20.172
9,595.738 99.468 -20.193
9,665.273 99.264 -20.259
9,735.312 99.057 -20.428
9,805.857 98.835 -20.766
9,876.915 98.572 -21.259
9,948.487 98.241 -21.726
10,020.578 97.830 -21.843
10,093.191 97.354 -21.278
10,166.331 96.860 -19.800
10,240.000 96.426 -17.425
10,314.203 96.121 -14.531
10,388.944 95.959 -11.653
10,464.227 95.900 -9.132
10,540.055 95.894 -6.994
10,616.433 95.915 -5.115
10,693.363 95.965 -3.495
10,770.853 96.035 -2.248
10,848.902 96.100 -1.412
10,927.518 96.139 -0.869
11,006.703 96.139 -0.424
11,086.462 96.105 0.084
11,166.799 96.053 0.766
11,247.719 96.006 1.647
11,329.224 95.987 2.638
11,411.320 96.011 3.610
11,494.012 96.089 4.400
11,577.302 96.206 4.799
11,661.195 96.324 4.623
11,745.697 96.385 3.847
11,830.812 96.341 2.706
11,916.543 96.172 1.644
12,002.895 95.904 1.075
12,089.873 95.580 1.177
12,177.480 95.235 1.989
12,265.724 94.894 3.681
12,354.606 94.615 6.494
12,444.133 94.530 10.291
12,534.309 94.761 14.146
12,625.137 95.262 16.720
12,716.624 95.841 17.258
12,808.773 96.315 16.015
12,901.592 96.609 13.794
12,995.082 96.733 11.317
13,089.250 96.734 8.980
13,184.100 96.662 6.869
13,279.637 96.536 4.917
13,375.867 96.349 3.085
13,472.794 96.084 1.479
13,570.423 95.745 0.317
13,668.760 95.357 -0.177
13,767.810 94.971 0.010
13,867.577 94.618 0.671
13,968.067 94.302 1.755
14,069.285 94.052 3.356
14,171.237 93.925 5.223
14,273.928 93.936 6.781
14,377.362 94.017 7.655
14,481.547 94.098 7.831
14,586.486 94.151 7.476
14,692.186 94.162 6.737
14,798.651 94.099 5.720
14,905.889 93.934 4.672
15,013.902 93.666 4.064
15,122.700 93.351 4.278
15,232.285 93.076 5.332
15,342.664 92.919 7.005
15,453.844 92.938 8.851
15,565.829 93.129 10.180
15,678.625 93.418 10.371
15,792.239 93.698 9.201
15,906.676 93.888 6.889
16,021.942 93.944 3.932
16,138.044 93.859 0.799
16,254.986 93.649 -2.319
16,372.777 93.312 -5.196
16,491.422 92.884 -7.533
16,610.924 92.427 -9.469
16,731.295 91.942 -11.442
16,852.535 91.352 -13.491
16,974.656 90.597 -14.945
17,097.662 89.699 -14.896
17,221.559 88.772 -12.844
17,346.354 87.990 -9.007
17,472.053 87.502 -4.300
17,598.662 87.326 0.172
17,726.189 87.378 3.767
17,854.641 87.563 6.181
17,984.021 87.775 7.243
18,114.342 87.924 7.202
18,245.605 87.974 6.510
18,377.820 87.927 5.532
18,510.994 87.809 4.455
18,645.133 87.646 3.259
18,780.242 87.439 1.830
18,916.332 87.150 0.116
19,053.408 86.721 -1.703
19,191.477 86.112 -3.055
19,330.547 85.350 -3.136
19,470.623 84.542 -1.418
19,611.715 83.816 2.010
19,753.830 83.298 6.561
19,896.975 83.048 10.921
