* Measurement data measured by REW V5.20 Beta 4
* Source: Microphone (E.A.R.S Gain: 18dB  ), no input selected, L, volume: no control
* Format: 256k Log Swept Sine, 1 sweep at -8.0 dBFS  With no timing reference
* Dated: Jan 28, 2019 11:39:56 AM
* REW Settings:
*  C-weighting compensation: Off
*  Target level: 75.0 dB
* Note: ; 
* Measurement: Grado SR80e L
* Smoothing: 1/48 octave
* Frequency Step: 1/96 octave
* Start Frequency: 20.1 Hz
*
* Freq(Hz) SPL(dB) Phase(degrees)
20.145 88.742 145.940
20.291 88.806 145.763
20.438 88.870 145.473
20.586 88.963 145.021
20.735 89.112 144.390
20.885 89.260 143.758
21.037 89.390 143.195
21.189 89.514 142.654
21.343 89.633 142.138
21.497 89.747 141.645
21.653 89.861 141.149
21.810 89.976 140.645
21.968 90.090 140.145
22.127 90.202 139.651
22.288 90.313 139.162
22.449 90.423 138.680
22.612 90.531 138.205
22.776 90.638 137.733
22.941 90.744 137.264
23.107 90.850 136.800
23.274 90.955 136.340
23.443 91.059 135.883
23.613 91.162 135.430
23.784 91.265 134.980
23.956 91.367 134.532
24.130 91.469 134.087
24.305 91.570 133.643
24.481 91.671 133.200
24.658 91.771 132.757
24.837 91.871 132.315
25.017 91.971 131.872
25.198 92.070 131.428
25.381 92.169 130.983
25.565 92.267 130.536
25.750 92.365 130.088
25.937 92.462 129.639
26.125 92.558 129.187
26.314 92.654 128.735
26.505 92.748 128.281
26.697 92.842 127.826
26.890 92.936 127.372
27.085 93.028 126.917
27.281 93.120 126.464
27.479 93.211 126.011
27.678 93.301 125.561
27.879 93.391 125.113
28.081 93.481 124.667
28.284 93.570 124.224
28.489 93.659 123.782
28.696 93.748 123.343
28.904 93.837 122.904
29.113 93.927 122.466
29.324 94.017 122.028
29.537 94.107 121.589
29.751 94.197 121.147
29.966 94.287 120.702
30.183 94.378 120.254
30.402 94.468 119.801
30.622 94.559 119.343
30.844 94.649 118.881
31.068 94.739 118.413
31.293 94.829 117.941
31.520 94.918 117.464
31.748 95.006 116.984
31.978 95.094 116.500
32.210 95.182 116.013
32.443 95.268 115.524
32.678 95.354 115.033
32.915 95.440 114.539
33.154 95.525 114.044
33.394 95.609 113.548
33.636 95.693 113.049
33.880 95.777 112.550
34.125 95.860 112.049
34.372 95.942 111.548
34.621 96.024 111.045
34.872 96.105 110.542
35.125 96.186 110.038
35.380 96.267 109.534
35.636 96.347 109.030
35.894 96.427 108.525
36.154 96.507 108.019
36.416 96.587 107.511
36.680 96.667 107.002
36.946 96.746 106.489
37.214 96.826 105.973
37.483 96.905 105.454
37.755 96.983 104.930
38.029 97.062 104.402
38.304 97.139 103.870
38.582 97.216 103.336
38.861 97.293 102.798
39.143 97.368 102.258
39.427 97.443 101.717
39.712 97.518 101.175
40.000 97.591 100.633
40.290 97.665 100.089
40.582 97.738 99.545
40.876 97.811 98.998
41.172 97.884 98.449
41.470 97.956 97.897
41.771 98.028 97.342
42.074 98.100 96.783
42.379 98.171 96.221
42.686 98.241 95.655
42.995 98.311 95.087
43.306 98.381 94.516
43.620 98.450 93.943
43.936 98.518 93.367
44.255 98.587 92.787
44.575 98.655 92.202
44.898 98.723 91.610
45.224 98.790 91.011
45.552 98.857 90.403
45.882 98.922 89.785
46.214 98.985 89.160
46.549 99.046 88.530
46.886 99.104 87.899
47.226 99.160 87.273
47.568 99.214 86.655
47.913 99.267 86.049
48.260 99.318 85.457
48.610 99.370 84.879
48.962 99.423 84.310
49.317 99.477 83.744
49.674 99.532 83.178
50.034 99.589 82.605
50.397 99.645 82.023
50.762 99.701 81.433
51.130 99.756 80.835
51.500 99.810 80.234
51.874 99.861 79.634
52.249 99.912 79.038
52.628 99.963 78.446
53.009 100.013 77.859
53.394 100.063 77.273
53.781 100.113 76.686
54.170 100.164 76.095
54.563 100.214 75.498
54.958 100.263 74.896
55.356 100.311 74.289
55.758 100.358 73.680
56.162 100.403 73.070
56.569 100.447 72.461
56.978 100.490 71.855
57.391 100.532 71.251
57.807 100.574 70.650
58.226 100.615 70.049
58.648 100.655 69.448
59.073 100.694 68.846
59.501 100.733 68.241
59.932 100.771 67.635
60.367 100.807 67.027
60.804 100.842 66.419
61.245 100.876 65.812
61.688 100.908 65.207
62.135 100.939 64.607
62.586 100.969 64.009
63.039 100.997 63.415
63.496 101.026 62.825
63.956 101.053 62.236
64.420 101.079 61.650
64.886 101.104 61.067
65.357 101.129 60.488
65.830 101.152 59.912
66.307 101.174 59.341
66.788 101.196 58.774
67.272 101.218 58.212
67.759 101.239 57.654
68.250 101.259 57.100
68.745 101.280 56.548
69.243 101.300 55.998
69.745 101.321 55.447
70.250 101.341 54.894
70.759 101.360 54.337
71.272 101.379 53.778
71.788 101.397 53.216
72.309 101.414 52.652
72.833 101.429 52.088
73.360 101.443 51.526
73.892 101.456 50.965
74.427 101.468 50.408
74.967 101.478 49.854
75.510 101.488 49.304
76.057 101.497 48.759
76.608 101.504 48.217
77.163 101.511 47.680
77.723 101.518 47.147
78.286 101.523 46.618
78.853 101.528 46.093
79.424 101.531 45.572
80.000 101.534 45.057
80.580 101.536 44.546
81.164 101.538 44.040
81.752 101.538 43.539
82.344 101.538 43.044
82.941 101.537 42.555
83.542 101.536 42.071
84.147 101.534 41.590
84.757 101.532 41.112
85.371 101.529 40.638
85.990 101.524 40.169
86.613 101.520 39.709
87.241 101.515 39.256
87.873 101.510 38.810
88.510 101.507 38.365
89.151 101.503 37.919
89.797 101.500 37.467
90.448 101.496 37.010
91.103 101.490 36.551
91.763 101.481 36.097
92.428 101.472 35.659
93.098 101.462 35.238
93.773 101.453 34.832
94.452 101.446 34.431
95.137 101.439 34.028
95.826 101.432 33.624
96.520 101.425 33.223
97.220 101.417 32.830
97.924 101.409 32.445
98.634 101.402 32.063
99.349 101.395 31.677
100.069 101.387 31.285
100.794 101.378 30.888
101.524 101.366 30.491
102.260 101.352 30.104
103.001 101.336 29.731
103.747 101.319 29.374
104.499 101.302 29.030
105.256 101.286 28.695
106.019 101.271 28.363
106.787 101.257 28.029
107.561 101.242 27.689
108.340 101.225 27.349
109.126 101.207 27.013
109.916 101.188 26.687
110.713 101.169 26.371
111.515 101.150 26.063
112.323 101.132 25.758
113.137 101.113 25.456
113.957 101.094 25.157
114.783 101.075 24.864
115.614 101.057 24.575
116.452 101.038 24.290
117.296 101.019 24.007
118.146 101.000 23.725
119.002 100.980 23.445
119.865 100.959 23.172
120.733 100.938 22.905
121.608 100.916 22.645
122.489 100.894 22.392
123.377 100.872 22.144
124.271 100.849 21.900
125.171 100.825 21.662
126.078 100.801 21.436
126.992 100.776 21.223
127.912 100.752 21.020
128.839 100.729 20.828
129.773 100.706 20.644
130.713 100.685 20.469
131.660 100.665 20.296
132.615 100.647 20.122
133.575 100.629 19.942
134.543 100.611 19.759
135.518 100.592 19.578
136.500 100.574 19.402
137.490 100.556 19.227
138.486 100.538 19.050
139.489 100.519 18.872
140.500 100.500 18.698
141.518 100.481 18.529
142.544 100.463 18.363
143.577 100.445 18.197
144.617 100.427 18.028
145.665 100.408 17.857
146.721 100.388 17.688
147.784 100.367 17.528
148.855 100.346 17.381
149.933 100.327 17.241
151.020 100.309 17.101
152.114 100.293 16.954
153.217 100.276 16.795
154.327 100.259 16.622
155.445 100.240 16.440
156.572 100.217 16.258
157.706 100.190 16.088
158.849 100.162 15.933
160.000 100.132 15.790
161.159 100.101 15.654
162.327 100.067 15.529
163.504 100.031 15.421
164.688 99.993 15.338
165.882 99.955 15.284
167.084 99.920 15.254
168.295 99.888 15.230
169.514 99.860 15.194
170.742 99.830 15.142
171.980 99.798 15.090
173.226 99.762 15.060
174.481 99.725 15.068
175.746 99.689 15.117
177.019 99.658 15.198
178.302 99.631 15.293
179.594 99.609 15.394
180.895 99.590 15.500
182.206 99.574 15.607
183.527 99.563 15.707
184.856 99.555 15.794
186.196 99.550 15.858
187.545 99.546 15.890
188.904 99.539 15.900
190.273 99.529 15.916
191.652 99.519 15.948
193.041 99.512 15.982
194.440 99.505 16.003
195.849 99.497 16.019
197.268 99.490 16.039
198.697 99.483 16.055
200.137 99.476 16.054
201.587 99.467 16.037
203.048 99.453 16.017
204.520 99.434 16.016
206.002 99.414 16.050
207.494 99.396 16.116
208.998 99.382 16.187
210.512 99.370 16.243
212.038 99.356 16.290
213.574 99.340 16.349
215.122 99.324 16.432
216.681 99.310 16.534
218.251 99.298 16.636
219.833 99.284 16.739
221.426 99.268 16.869
223.030 99.253 17.038
224.646 99.242 17.232
226.274 99.234 17.428
227.914 99.228 17.617
229.565 99.221 17.811
231.229 99.214 18.022
232.905 99.207 18.267
234.592 99.204 18.559
236.292 99.211 18.892
238.004 99.229 19.233
239.729 99.258 19.563
241.466 99.297 19.878
243.216 99.348 20.160
244.979 99.408 20.386
246.754 99.475 20.555
248.542 99.551 20.667
250.343 99.635 20.696
252.157 99.727 20.608
253.984 99.819 20.348
255.825 99.895 19.926
257.678 99.947 19.438
259.546 99.982 18.951
261.426 100.002 18.456
263.321 100.005 17.972
265.229 99.993 17.547
267.151 99.972 17.184
269.087 99.945 16.878
271.037 99.914 16.639
273.001 99.885 16.452
274.979 99.859 16.278
276.972 99.831 16.105
278.979 99.800 15.951
281.000 99.766 15.831
283.037 99.734 15.750
285.088 99.705 15.701
287.153 99.680 15.654
289.234 99.655 15.597
291.330 99.626 15.559
293.441 99.596 15.570
295.568 99.571 15.617
297.710 99.550 15.668
299.867 99.531 15.713
302.040 99.511 15.759
304.228 99.493 15.808
306.433 99.476 15.857
308.654 99.461 15.902
310.890 99.445 15.940
313.143 99.428 15.978
315.412 99.409 16.027
317.698 99.388 16.099
320.000 99.369 16.209
322.319 99.356 16.339
324.655 99.348 16.446
327.007 99.340 16.530
329.377 99.330 16.613
331.764 99.321 16.697
334.168 99.312 16.780
336.589 99.304 16.854
339.028 99.294 16.925
341.485 99.281 17.023
343.959 99.272 17.147
346.452 99.267 17.269
348.962 99.262 17.376
351.491 99.258 17.476
354.038 99.254 17.569
356.604 99.250 17.640
359.188 99.244 17.699
361.791 99.235 17.759
364.412 99.225 17.832
367.053 99.215 17.925
369.713 99.207 18.031
372.392 99.200 18.138
375.090 99.194 18.243
377.809 99.189 18.346
380.546 99.184 18.444
383.304 99.178 18.547
386.081 99.172 18.659
388.879 99.168 18.788
391.697 99.166 18.916
394.536 99.165 19.019
397.395 99.161 19.095
400.274 99.154 19.170
403.175 99.146 19.237
406.096 99.134 19.282
409.039 99.114 19.359
412.003 99.099 19.549
414.989 99.105 19.755
417.996 99.117 19.874
421.025 99.122 19.955
424.076 99.119 20.043
427.149 99.111 20.152
430.244 99.103 20.294
433.362 99.100 20.453
436.502 99.100 20.594
439.665 99.099 20.718
442.851 99.096 20.845
446.060 99.092 20.977
449.293 99.087 21.118
452.548 99.084 21.258
455.828 99.080 21.398
459.131 99.076 21.545
462.458 99.073 21.692
465.809 99.071 21.840
469.184 99.072 21.992
472.584 99.077 22.137
476.009 99.082 22.252
479.458 99.082 22.359
482.933 99.079 22.491
486.432 99.075 22.633
489.957 99.070 22.776
493.507 99.067 22.922
497.084 99.065 23.065
500.686 99.064 23.210
504.314 99.063 23.362
507.968 99.061 23.507
511.649 99.056 23.649
515.357 99.050 23.810
519.091 99.045 24.001
522.853 99.048 24.193
526.642 99.053 24.348
530.458 99.055 24.482
534.302 99.055 24.623
538.174 99.054 24.784
542.074 99.052 24.959
546.002 99.048 25.147
549.958 99.046 25.349
553.943 99.048 25.543
557.958 99.049 25.731
562.001 99.049 25.929
566.073 99.048 26.139
570.175 99.049 26.352
574.307 99.054 26.534
578.469 99.057 26.677
582.660 99.056 26.824
586.883 99.053 27.027
591.135 99.061 27.255
595.419 99.072 27.435
599.734 99.077 27.579
604.080 99.076 27.735
608.457 99.073 27.929
612.866 99.072 28.165
617.307 99.079 28.405
621.780 99.087 28.611
626.286 99.093 28.816
630.824 99.105 29.033
635.396 99.121 29.213
640.000 99.132 29.349
644.638 99.131 29.490
649.309 99.125 29.664
654.014 99.119 29.881
658.753 99.119 30.109
663.527 99.121 30.321
668.335 99.125 30.508
673.178 99.125 30.699
678.056 99.127 30.930
682.970 99.135 31.180
687.919 99.144 31.417
692.904 99.153 31.635
697.925 99.160 31.833
702.982 99.165 32.019
708.076 99.167 32.220
713.208 99.167 32.470
718.376 99.176 32.736
723.581 99.191 32.933
728.825 99.199 33.080
734.106 99.200 33.237
739.426 99.196 33.428
744.784 99.191 33.656
750.181 99.188 33.909
755.617 99.189 34.179
761.093 99.195 34.441
766.608 99.199 34.682
772.163 99.201 34.930
777.758 99.204 35.193
783.394 99.210 35.458
789.071 99.217 35.736
794.789 99.226 35.999
800.548 99.228 36.246
806.349 99.222 36.549
812.193 99.223 36.892
818.078 99.232 37.218
824.006 99.243 37.536
829.977 99.256 37.849
835.992 99.271 38.144
842.050 99.286 38.423
848.151 99.300 38.691
854.297 99.311 38.962
860.488 99.327 39.250
866.724 99.352 39.517
873.004 99.377 39.727
879.330 99.393 39.910
885.702 99.401 40.093
892.120 99.403 40.277
898.585 99.395 40.474
905.097 99.383 40.736
911.655 99.376 41.064
918.262 99.376 41.411
924.916 99.376 41.771
931.618 99.380 42.190
938.369 99.400 42.627
945.169 99.428 42.966
952.018 99.447 43.201
958.917 99.452 43.435
965.865 99.449 43.751
972.864 99.449 44.116
979.914 99.453 44.476
987.015 99.458 44.833
994.167 99.465 45.215
1,001.371 99.477 45.628
1,008.628 99.491 46.036
1,015.937 99.505 46.391
1,023.299 99.510 46.726
1,030.714 99.511 47.152
1,038.183 99.527 47.650
1,045.706 99.559 48.099
1,053.283 99.594 48.434
1,060.916 99.615 48.673
1,068.604 99.617 48.940
1,076.347 99.615 49.336
1,084.147 99.620 49.791
1,092.003 99.630 50.222
1,099.916 99.637 50.646
1,107.887 99.643 51.099
1,115.915 99.649 51.581
1,124.001 99.662 52.115
1,132.146 99.693 52.649
1,140.350 99.734 53.070
1,148.614 99.757 53.371
1,156.937 99.762 53.747
1,165.321 99.769 54.166
1,173.765 99.764 54.557
1,182.271 99.741 55.076
1,190.838 99.733 55.817
1,199.467 99.762 56.598
1,208.159 99.803 57.276
1,216.914 99.839 57.893
1,225.732 99.870 58.525
1,234.614 99.911 59.242
1,243.561 99.979 59.906
1,252.572 100.049 60.355
1,261.649 100.098 60.708
1,270.791 100.134 61.096
1,280.000 100.163 61.499
1,289.275 100.192 61.948
1,298.618 100.216 62.339
1,308.028 100.218 62.754
1,317.507 100.207 63.272
1,327.054 100.187 63.956
1,336.670 100.188 64.803
1,346.357 100.204 65.625
1,356.113 100.213 66.482
1,365.940 100.216 67.515
1,375.838 100.250 68.782
1,385.808 100.327 70.028
1,395.850 100.424 71.192
1,405.965 100.553 72.302
1,416.153 100.707 73.166
1,426.415 100.859 73.766
1,436.751 100.990 74.087
1,447.163 101.061 74.291
1,457.649 101.099 74.765
1,468.212 101.152 75.375
1,478.851 101.201 76.012
1,489.568 101.230 76.730
1,500.362 101.248 77.804
1,511.234 101.317 79.213
1,522.185 101.459 80.534
1,533.215 101.626 81.444
1,544.326 101.750 82.098
1,555.517 101.839 83.025
1,566.789 101.967 84.193
1,578.142 102.131 85.143
1,589.578 102.258 85.905
1,601.097 102.355 87.061
1,612.699 102.538 88.724
1,624.385 102.824 89.917
1,636.156 103.056 90.507
1,648.012 103.245 91.307
1,659.955 103.466 92.341
1,671.983 103.736 93.275
1,684.099 104.010 93.959
1,696.303 104.307 94.684
1,708.595 104.647 94.968
1,720.976 104.905 94.797
1,733.447 105.122 95.081
1,746.008 105.398 95.454
1,758.661 105.658 95.632
1,771.405 105.937 95.981
1,784.241 106.251 96.208
1,797.170 106.584 96.316
1,810.193 106.944 96.219
1,823.311 107.307 95.808
1,836.523 107.671 95.123
1,849.831 107.999 94.079
1,863.236 108.290 93.100
1,876.738 108.600 92.120
1,890.338 108.921 90.888
1,904.036 109.224 89.300
1,917.833 109.484 87.422
1,931.730 109.682 85.441
1,945.729 109.852 83.511
1,959.828 109.972 81.511
1,974.030 110.058 79.925
1,988.334 110.206 78.357
2,002.743 110.315 76.260
2,017.255 110.360 74.384
2,031.873 110.444 72.460
2,046.597 110.463 69.907
2,061.428 110.341 67.512
2,076.365 110.137 65.736
2,091.412 109.885 64.925
2,106.567 109.741 65.153
2,121.832 109.784 65.119
2,137.208 109.856 64.088
2,152.695 109.838 62.595
2,168.294 109.731 61.135
2,184.007 109.566 60.136
2,199.833 109.397 59.273
2,215.774 109.141 58.939
2,231.830 108.965 59.718
2,248.003 108.969 60.200
2,264.293 108.998 59.726
2,280.701 108.929 58.547
2,297.228 108.657 57.541
2,313.874 108.254 58.120
2,330.642 107.973 60.492
2,347.530 107.994 63.204
2,364.542 108.192 64.932
2,381.676 108.448 65.680
2,398.935 108.694 65.181
2,416.318 108.736 63.582
2,433.828 108.481 62.894
2,451.464 108.228 64.524
2,469.229 108.274 66.942
2,487.122 108.517 68.412
2,505.145 108.767 68.878
2,523.298 108.966 68.698
2,541.583 109.071 68.247
2,560.000 109.081 68.246
2,578.551 109.138 69.145
2,597.236 109.369 70.132
2,616.057 109.698 70.163
2,635.014 109.987 68.991
2,654.108 110.108 67.090
2,673.341 110.055 65.604
2,692.713 109.945 64.921
2,712.226 109.827 65.038
2,731.879 109.798 66.044
2,751.676 109.970 67.012
2,771.615 110.217 66.871
2,791.700 110.405 65.968
2,811.930 110.510 64.616
2,832.306 110.490 63.293
2,852.830 110.409 62.540
2,873.503 110.347 62.237
2,894.325 110.327 62.060
2,915.299 110.318 61.605
2,936.424 110.235 61.140
2,957.703 110.121 61.263
2,979.136 110.060 61.773
3,000.724 110.047 62.391
3,022.468 110.102 63.020
3,044.370 110.219 63.124
3,066.431 110.305 62.546
3,088.652 110.285 61.584
3,111.033 110.120 60.986
3,133.577 109.899 61.460
3,156.284 109.750 62.924
3,179.156 109.780 64.739
3,202.193 109.956 65.748
3,225.398 110.089 65.633
3,248.771 110.065 65.355
3,272.312 109.952 65.916
3,296.025 109.910 67.375
3,319.909 110.006 68.821
3,343.967 110.165 69.702
3,368.198 110.295 69.956
3,392.606 110.334 70.167
3,417.190 110.339 70.886
3,441.952 110.401 71.968
3,466.894 110.512 72.733
3,492.017 110.577 73.190
3,517.321 110.572 73.860
3,542.809 110.554 75.197
3,568.482 110.614 77.049
3,594.341 110.760 78.836
3,620.387 110.909 80.361
3,646.622 111.038 82.119
3,673.046 111.218 84.388
3,699.663 111.520 86.857
3,726.472 111.928 88.945
3,753.476 112.363 90.427
3,780.675 112.764 91.617
3,808.071 113.164 93.041
3,835.666 113.652 94.747
3,863.461 114.258 96.150
3,891.457 114.887 96.803
3,919.656 115.502 97.229
3,948.060 116.202 97.687
3,976.669 117.008 97.504
4,005.486 117.817 96.157
4,034.511 118.546 93.885
4,063.747 119.188 91.172
4,093.194 119.773 88.205
4,122.855 120.295 84.934
4,152.731 120.736 81.461
4,182.824 121.090 77.840
4,213.134 121.345 74.103
4,243.664 121.521 70.351
4,274.416 121.653 66.748
4,305.390 121.762 63.326
4,336.588 121.847 59.986
4,368.013 121.921 56.674
4,399.666 122.003 53.238
4,431.547 122.092 49.437
4,463.660 122.153 45.108
4,496.005 122.166 40.321
4,528.585 122.166 35.343
4,561.401 122.182 30.378
4,594.455 122.202 25.499
4,627.749 122.208 20.653
4,661.283 122.212 15.643
4,695.061 122.203 10.385
4,729.083 122.145 4.990
4,763.352 122.041 -0.162
4,797.869 121.948 -4.752
4,832.637 121.856 -8.882
4,867.656 121.707 -12.565
4,902.929 121.495 -15.874
4,938.458 121.220 -19.038
4,974.244 120.836 -21.897
5,010.289 120.346 -24.048
5,046.596 119.856 -25.568
5,083.166 119.423 -27.051
5,120.000 119.014 -28.766
5,157.102 118.600 -30.567
5,194.472 118.160 -32.406
5,232.113 117.677 -34.040
5,270.027 117.184 -35.265
5,308.216 116.734 -36.237
5,346.682 116.318 -37.264
5,385.426 115.909 -38.451
5,424.451 115.483 -39.866
5,463.759 114.993 -41.387
5,503.352 114.408 -42.566
5,543.231 113.780 -43.067
5,583.399 113.165 -42.991
5,623.859 112.578 -42.511
5,664.612 112.011 -41.679
5,705.660 111.479 -40.444
5,747.006 111.013 -38.917
5,788.651 110.612 -37.379
5,830.598 110.256 -35.945
5,872.849 109.916 -34.547
5,915.406 109.585 -33.033
5,958.271 109.279 -31.399
6,001.447 109.002 -29.720
6,044.937 108.740 -27.932
6,088.740 108.520 -25.907
6,132.862 108.376 -23.767
6,177.303 108.326 -21.789
6,222.066 108.348 -20.341
6,267.154 108.364 -19.583
6,312.568 108.332 -19.207
6,358.312 108.257 -19.002
6,404.387 108.129 -18.834
6,450.796 107.969 -18.441
6,497.541 107.821 -17.837
6,544.625 107.689 -17.194
6,592.050 107.568 -16.576
6,639.818 107.454 -16.111
6,687.934 107.323 -15.748
6,736.397 107.169 -15.413
6,785.211 106.992 -14.974
6,834.380 106.816 -14.375
6,883.905 106.646 -13.708
6,933.789 106.488 -13.050
6,984.034 106.330 -12.571
7,034.643 106.115 -12.124
7,085.619 105.837 -11.204
7,136.964 105.587 -9.610
7,188.681 105.429 -7.785
7,240.773 105.334 -6.182
7,293.243 105.238 -4.799
7,346.093 105.129 -3.319
7,399.326 105.046 -1.743
7,452.944 104.982 -0.234
7,506.951 104.927 1.298
7,561.350 104.897 2.904
7,616.143 104.902 4.387
7,671.332 104.897 5.575
7,726.922 104.844 6.787
7,782.915 104.783 8.310
7,839.312 104.743 10.053
7,896.120 104.721 11.976
7,953.338 104.728 14.169
8,010.971 104.799 16.695
8,069.022 104.971 19.297
8,127.493 105.230 21.667
8,186.389 105.564 23.665
8,245.711 105.948 25.105
8,305.462 106.343 25.982
8,365.647 106.721 26.413
8,426.268 107.067 26.604
8,487.328 107.402 26.692
8,548.831 107.731 26.683
8,610.779 108.071 26.632
8,673.177 108.428 26.466
8,736.026 108.825 26.301
8,799.331 109.331 25.986
8,863.095 109.937 24.729
8,927.320 110.482 22.044
8,992.011 110.883 18.758
9,057.171 111.235 15.383
9,122.803 111.557 11.548
9,188.910 111.811 7.202
9,255.497 111.983 2.468
9,322.566 112.051 -2.736
9,390.121 111.958 -8.088
9,458.166 111.732 -13.067
9,526.704 111.440 -17.585
9,595.738 111.123 -22.031
9,665.273 110.723 -26.746
9,735.312 110.169 -31.253
9,805.857 109.488 -34.984
9,876.915 108.744 -37.837
9,948.487 107.968 -39.962
10,020.578 107.165 -41.415
10,093.191 106.356 -42.131
10,166.331 105.578 -42.098
10,240.000 104.848 -41.477
10,314.203 104.173 -40.485
10,388.944 103.544 -39.218
10,464.227 102.945 -37.639
10,540.055 102.387 -35.702
10,616.433 101.899 -33.516
10,693.363 101.489 -31.285
10,770.853 101.130 -29.148
10,848.902 100.797 -27.079
10,927.518 100.475 -24.964
11,006.703 100.160 -22.697
11,086.462 99.862 -20.170
11,166.799 99.613 -17.306
11,247.719 99.443 -14.160
11,329.224 99.373 -10.886
11,411.320 99.421 -7.690
11,494.012 99.588 -4.852
11,577.302 99.849 -2.641
11,661.195 100.171 -1.252
11,745.697 100.510 -0.815
11,830.812 100.821 -1.305
11,916.543 101.064 -2.570
12,002.895 101.209 -4.406
12,089.873 101.246 -6.585
12,177.480 101.171 -8.881
12,265.724 100.986 -11.031
12,354.606 100.733 -12.760
12,444.133 100.475 -14.171
12,534.309 100.222 -15.784
12,625.137 99.905 -17.903
12,716.624 99.424 -20.238
12,808.773 98.728 -21.998
12,901.592 97.843 -22.304
12,995.082 96.869 -20.636
13,089.250 95.940 -16.907
13,184.100 95.207 -11.473
13,279.637 94.784 -5.175
13,375.867 94.649 1.074
13,472.794 94.720 7.014
13,570.423 94.998 12.801
13,668.760 95.550 18.201
13,767.810 96.374 22.352
13,867.577 97.346 24.369
13,968.067 98.296 23.956
14,069.285 99.098 21.422
14,171.237 99.668 17.293
14,273.928 99.945 12.401
14,377.362 99.952 7.903
14,481.547 99.828 4.581
14,586.486 99.730 2.134
14,692.186 99.690 -0.337
14,798.651 99.633 -3.198
14,905.889 99.514 -6.266
15,013.902 99.337 -9.498
15,122.700 99.079 -12.983
15,232.285 98.690 -16.463
15,342.664 98.143 -19.251
15,453.844 97.497 -20.644
15,565.829 96.901 -20.569
15,678.625 96.487 -19.780
15,792.239 96.259 -19.186
15,906.676 96.146 -19.190
16,021.942 96.093 -19.812
16,138.044 96.068 -20.990
16,254.986 96.095 -22.770
16,372.777 96.180 -25.690
16,491.422 96.195 -30.477
16,610.924 95.931 -36.873
16,731.295 95.249 -43.228
16,852.535 94.196 -47.175
16,974.656 93.133 -48.003
17,097.662 92.404 -48.468
17,221.559 91.747 -50.009
17,346.354 91.014 -50.611
17,472.053 90.526 -50.837
17,598.662 90.280 -53.082
17,726.189 89.961 -58.001
17,854.641 89.341 -64.936
17,984.021 88.295 -72.803
18,114.342 86.712 -79.988
18,245.605 84.528 -83.998
18,377.820 81.801 -81.980
18,510.994 78.833 -72.040
18,645.133 76.469 -55.649
18,780.242 75.756 -38.882
18,916.332 76.286 -27.736
19,053.408 76.952 -23.304
19,191.477 77.258 -23.485
19,330.547 77.075 -25.851
19,470.623 76.378 -28.324
19,611.715 75.191 -29.125
19,753.830 73.619 -26.900
19,896.975 71.980 -22.245
