* Measurement data measured by REW V5.20 Beta 4
* Source: Microphone (E.A.R.S Gain: 18dB  ), no input selected, R, volume: no control
* Format: 256k Log Swept Sine, 1 sweep at -8.0 dBFS  With no timing reference
* Dated: Jan 28, 2019 11:38:21 AM
* REW Settings:
*  C-weighting compensation: Off
*  Target level: 75.0 dB
* Note: ; 
* Measurement: Grado SR80e R
* Smoothing: 1/48 octave
* Frequency Step: 1/96 octave
* Start Frequency: 20.1 Hz
*
* Freq(Hz) SPL(dB) Phase(degrees)
20.145 89.353 143.776
20.291 89.419 143.604
20.438 89.484 143.322
20.586 89.579 142.881
20.735 89.731 142.265
20.885 89.881 141.648
21.037 90.014 141.096
21.189 90.141 140.565
21.343 90.262 140.055
21.497 90.378 139.567
21.653 90.494 139.073
21.810 90.611 138.570
21.968 90.726 138.067
22.127 90.839 137.569
22.288 90.951 137.074
22.449 91.060 136.585
22.612 91.168 136.101
22.776 91.274 135.620
22.941 91.379 135.142
23.107 91.482 134.670
23.274 91.584 134.203
23.443 91.684 133.742
23.613 91.783 133.287
23.784 91.881 132.838
23.956 91.978 132.395
24.130 92.074 131.957
24.305 92.170 131.526
24.481 92.265 131.100
24.658 92.360 130.679
24.837 92.455 130.262
25.017 92.549 129.848
25.198 92.644 129.436
25.381 92.738 129.026
25.565 92.833 128.615
25.750 92.927 128.204
25.937 93.022 127.791
26.125 93.116 127.375
26.314 93.211 126.956
26.505 93.305 126.534
26.697 93.398 126.107
26.890 93.492 125.677
27.085 93.584 125.243
27.281 93.676 124.806
27.479 93.768 124.366
27.678 93.858 123.923
27.879 93.948 123.479
28.081 94.037 123.033
28.284 94.126 122.586
28.489 94.214 122.138
28.696 94.302 121.690
28.904 94.389 121.242
29.113 94.476 120.793
29.324 94.563 120.344
29.537 94.649 119.894
29.751 94.735 119.442
29.966 94.821 118.988
30.183 94.907 118.533
30.402 94.993 118.075
30.622 95.078 117.614
30.844 95.164 117.151
31.068 95.249 116.684
31.293 95.333 116.215
31.520 95.418 115.743
31.748 95.501 115.269
31.978 95.585 114.792
32.210 95.668 114.314
32.443 95.750 113.834
32.678 95.832 113.354
32.915 95.914 112.872
33.154 95.995 112.390
33.394 96.076 111.907
33.636 96.157 111.424
33.880 96.238 110.939
34.125 96.319 110.453
34.372 96.399 109.966
34.621 96.480 109.476
34.872 96.560 108.984
35.125 96.640 108.489
35.380 96.720 107.990
35.636 96.800 107.488
35.894 96.879 106.983
36.154 96.957 106.474
36.416 97.035 105.963
36.680 97.113 105.449
36.946 97.190 104.933
37.214 97.266 104.415
37.483 97.342 103.896
37.755 97.417 103.376
38.029 97.491 102.855
38.304 97.565 102.334
38.582 97.639 101.812
38.861 97.712 101.289
39.143 97.784 100.766
39.427 97.856 100.242
39.712 97.928 99.716
40.000 97.999 99.189
40.290 98.070 98.660
40.582 98.140 98.129
40.876 98.210 97.596
41.172 98.279 97.062
41.470 98.348 96.526
41.771 98.416 95.988
42.074 98.483 95.450
42.379 98.550 94.911
42.686 98.616 94.371
42.995 98.681 93.830
43.306 98.746 93.289
43.620 98.811 92.748
43.936 98.875 92.205
44.255 98.938 91.662
44.575 99.001 91.117
44.898 99.063 90.572
45.224 99.124 90.028
45.552 99.185 89.483
45.882 99.245 88.940
46.214 99.305 88.399
46.549 99.365 87.861
46.886 99.424 87.324
47.226 99.484 86.789
47.568 99.545 86.253
47.913 99.605 85.715
48.260 99.667 85.172
48.610 99.728 84.622
48.962 99.789 84.064
49.317 99.850 83.496
49.674 99.910 82.919
50.034 99.969 82.335
50.397 100.026 81.745
50.762 100.082 81.153
51.130 100.136 80.559
51.500 100.189 79.966
51.874 100.241 79.373
52.249 100.292 78.781
52.628 100.341 78.190
53.009 100.390 77.602
53.394 100.438 77.015
53.781 100.484 76.431
54.170 100.530 75.850
54.563 100.575 75.272
54.958 100.620 74.698
55.356 100.665 74.125
55.758 100.709 73.554
56.162 100.753 72.982
56.569 100.796 72.409
56.978 100.839 71.833
57.391 100.881 71.255
57.807 100.923 70.675
58.226 100.963 70.093
58.648 101.002 69.511
59.073 101.040 68.929
59.501 101.076 68.349
59.932 101.112 67.772
60.367 101.146 67.198
60.804 101.180 66.629
61.245 101.213 66.063
61.688 101.245 65.500
62.135 101.277 64.940
62.586 101.308 64.382
63.039 101.339 63.826
63.496 101.369 63.272
63.956 101.399 62.720
64.420 101.428 62.171
64.886 101.456 61.624
65.357 101.484 61.080
65.830 101.512 60.538
66.307 101.539 59.999
66.788 101.566 59.461
67.272 101.593 58.924
67.759 101.620 58.387
68.250 101.646 57.850
68.745 101.672 57.310
69.243 101.698 56.768
69.745 101.722 56.223
70.250 101.746 55.676
70.759 101.769 55.127
71.272 101.790 54.579
71.788 101.811 54.032
72.309 101.830 53.487
72.833 101.849 52.942
73.360 101.866 52.397
73.892 101.883 51.853
74.427 101.898 51.310
74.967 101.911 50.771
75.510 101.924 50.237
76.057 101.936 49.708
76.608 101.947 49.185
77.163 101.958 48.663
77.723 101.969 48.142
78.286 101.978 47.620
78.853 101.987 47.098
79.424 101.994 46.578
80.000 101.999 46.064
80.580 102.004 45.558
81.164 102.007 45.063
81.752 102.011 44.577
82.344 102.015 44.096
82.941 102.020 43.615
83.542 102.025 43.133
84.147 102.029 42.648
84.757 102.032 42.161
85.371 102.033 41.678
85.990 102.034 41.200
86.613 102.034 40.730
87.241 102.033 40.270
87.873 102.032 39.819
88.510 102.032 39.377
89.151 102.033 38.942
89.797 102.036 38.509
90.448 102.040 38.067
91.103 102.046 37.606
91.763 102.050 37.119
92.428 102.049 36.614
93.098 102.042 36.107
93.773 102.030 35.624
94.452 102.013 35.180
95.137 101.997 34.780
95.826 101.983 34.411
96.520 101.972 34.057
97.220 101.964 33.705
97.924 101.958 33.346
98.634 101.951 32.978
99.349 101.944 32.605
100.069 101.935 32.230
100.794 101.924 31.860
101.524 101.912 31.499
102.260 101.899 31.149
103.001 101.887 30.808
103.747 101.876 30.471
104.499 101.865 30.131
105.256 101.855 29.785
106.019 101.845 29.431
106.787 101.833 29.073
107.561 101.819 28.717
108.340 101.804 28.366
109.126 101.788 28.025
109.916 101.772 27.694
110.713 101.756 27.374
111.515 101.740 27.062
112.323 101.725 26.753
113.137 101.711 26.444
113.957 101.695 26.137
114.783 101.679 25.834
115.614 101.663 25.536
116.452 101.646 25.245
117.296 101.629 24.958
118.146 101.612 24.676
119.002 101.595 24.398
119.865 101.577 24.126
120.733 101.559 23.859
121.608 101.541 23.598
122.489 101.523 23.339
123.377 101.505 23.084
124.271 101.487 22.835
125.171 101.468 22.592
126.078 101.449 22.358
126.992 101.431 22.132
127.912 101.414 21.907
128.839 101.397 21.681
129.773 101.379 21.454
130.713 101.361 21.228
131.660 101.342 21.006
132.615 101.321 20.792
133.575 101.300 20.591
134.543 101.280 20.406
135.518 101.262 20.231
136.500 101.246 20.053
137.490 101.230 19.866
138.486 101.215 19.672
139.489 101.198 19.475
140.500 101.181 19.282
141.518 101.163 19.092
142.544 101.144 18.908
143.577 101.125 18.731
144.617 101.107 18.563
145.665 101.089 18.401
146.721 101.072 18.240
147.784 101.056 18.072
148.855 101.040 17.897
149.933 101.022 17.716
151.020 101.002 17.540
152.114 100.981 17.377
153.217 100.960 17.230
154.327 100.940 17.094
155.445 100.922 16.962
156.572 100.904 16.832
157.706 100.888 16.699
158.849 100.872 16.561
160.000 100.855 16.417
161.159 100.837 16.274
162.327 100.819 16.136
163.504 100.801 16.000
164.688 100.783 15.864
165.882 100.764 15.727
167.084 100.745 15.585
168.295 100.725 15.433
169.514 100.702 15.277
170.742 100.675 15.131
171.980 100.647 15.003
173.226 100.618 14.890
174.481 100.588 14.785
175.746 100.558 14.694
177.019 100.527 14.617
178.302 100.496 14.548
179.594 100.464 14.483
180.895 100.430 14.430
182.206 100.393 14.404
183.527 100.356 14.417
184.856 100.320 14.476
186.196 100.289 14.566
187.545 100.265 14.669
188.904 100.245 14.773
190.273 100.231 14.869
191.652 100.219 14.948
193.041 100.210 15.012
194.440 100.201 15.069
195.849 100.194 15.118
197.268 100.186 15.160
198.697 100.178 15.205
200.137 100.172 15.261
201.587 100.169 15.316
203.048 100.169 15.353
204.520 100.169 15.368
206.002 100.168 15.364
207.494 100.165 15.349
208.998 100.161 15.336
210.512 100.156 15.329
212.038 100.152 15.324
213.574 100.148 15.322
215.122 100.146 15.327
216.681 100.145 15.331
218.251 100.146 15.319
219.833 100.146 15.294
221.426 100.144 15.271
223.030 100.142 15.253
224.646 100.141 15.234
226.274 100.140 15.210
227.914 100.138 15.190
229.565 100.136 15.181
231.229 100.136 15.176
232.905 100.138 15.164
234.592 100.141 15.133
236.292 100.143 15.074
238.004 100.141 14.997
239.729 100.135 14.921
241.466 100.126 14.856
243.216 100.116 14.820
244.979 100.113 14.806
246.754 100.120 14.755
248.542 100.129 14.608
250.343 100.128 14.397
252.157 100.115 14.192
253.984 100.097 14.014
255.825 100.074 13.855
257.678 100.046 13.715
259.546 100.013 13.607
261.426 99.977 13.532
263.321 99.937 13.484
265.229 99.893 13.475
267.151 99.848 13.515
269.087 99.805 13.606
271.037 99.765 13.746
273.001 99.733 13.917
274.979 99.708 14.088
276.972 99.688 14.242
278.979 99.671 14.388
281.000 99.656 14.530
283.037 99.642 14.666
285.088 99.630 14.801
287.153 99.621 14.931
289.234 99.612 15.056
291.330 99.603 15.181
293.441 99.594 15.314
295.568 99.587 15.467
297.710 99.583 15.628
299.867 99.582 15.776
302.040 99.582 15.911
304.228 99.583 16.035
306.433 99.584 16.128
308.654 99.582 16.193
310.890 99.573 16.262
313.143 99.562 16.378
315.412 99.556 16.531
317.698 99.557 16.668
320.000 99.559 16.758
322.319 99.557 16.830
324.655 99.551 16.918
327.007 99.546 17.024
329.377 99.544 17.124
331.764 99.542 17.210
334.168 99.538 17.298
336.589 99.534 17.403
339.028 99.532 17.512
341.485 99.531 17.613
343.959 99.530 17.714
346.452 99.530 17.814
348.962 99.530 17.897
351.491 99.526 17.983
354.038 99.522 18.091
356.604 99.520 18.210
359.188 99.521 18.323
361.791 99.523 18.419
364.412 99.524 18.499
367.053 99.522 18.574
369.713 99.518 18.660
372.392 99.515 18.763
375.090 99.513 18.869
377.809 99.511 18.971
380.546 99.507 19.086
383.304 99.505 19.214
386.081 99.506 19.324
388.879 99.505 19.415
391.697 99.503 19.510
394.536 99.503 19.616
397.395 99.504 19.720
400.274 99.502 19.833
403.175 99.497 19.992
406.096 99.492 20.192
409.039 99.495 20.392
412.003 99.502 20.494
414.989 99.497 20.521
417.996 99.485 20.591
421.025 99.478 20.712
424.076 99.478 20.840
427.149 99.479 20.963
430.244 99.479 21.097
433.362 99.481 21.235
436.502 99.483 21.358
439.665 99.483 21.470
442.851 99.482 21.586
446.060 99.482 21.697
449.293 99.479 21.819
452.548 99.478 21.959
455.828 99.479 22.093
459.131 99.479 22.222
462.458 99.477 22.361
465.809 99.475 22.513
469.184 99.475 22.670
472.584 99.478 22.824
476.009 99.482 22.954
479.458 99.484 23.061
482.933 99.481 23.180
486.432 99.477 23.334
489.957 99.475 23.519
493.507 99.479 23.688
497.084 99.481 23.821
500.686 99.479 23.951
504.314 99.476 24.109
507.968 99.476 24.287
511.649 99.480 24.466
515.357 99.485 24.643
519.091 99.491 24.815
522.853 99.498 24.982
526.642 99.506 25.123
530.458 99.508 25.214
534.302 99.501 25.312
538.174 99.495 25.462
542.074 99.494 25.646
546.002 99.500 25.831
549.958 99.506 25.992
553.943 99.509 26.139
557.958 99.509 26.294
562.001 99.507 26.454
566.073 99.504 26.621
570.175 99.501 26.804
574.307 99.501 27.001
578.469 99.503 27.194
582.660 99.505 27.379
586.883 99.507 27.562
591.135 99.509 27.730
595.419 99.506 27.891
599.734 99.500 28.079
604.080 99.497 28.292
608.457 99.498 28.510
612.866 99.502 28.719
617.307 99.506 28.948
621.780 99.513 29.203
626.286 99.522 29.444
630.824 99.531 29.662
635.396 99.540 29.864
640.000 99.549 30.049
644.638 99.556 30.208
649.309 99.556 30.365
654.014 99.553 30.565
658.753 99.554 30.801
663.527 99.559 31.045
668.335 99.568 31.266
673.178 99.574 31.470
678.056 99.577 31.687
682.970 99.579 31.917
687.919 99.582 32.157
692.904 99.586 32.411
697.925 99.595 32.673
702.982 99.611 32.901
708.076 99.625 33.085
713.208 99.630 33.293
718.376 99.638 33.548
723.581 99.650 33.784
728.825 99.660 33.989
734.106 99.668 34.183
739.426 99.673 34.388
744.784 99.678 34.614
750.181 99.682 34.836
755.617 99.681 35.060
761.093 99.677 35.321
766.608 99.678 35.624
772.163 99.687 35.912
777.758 99.696 36.183
783.394 99.707 36.487
789.071 99.728 36.799
794.789 99.753 37.043
800.548 99.773 37.233
806.349 99.790 37.416
812.193 99.804 37.561
818.078 99.808 37.685
824.006 99.801 37.870
829.977 99.795 38.126
835.992 99.794 38.392
842.050 99.791 38.656
848.151 99.790 38.960
854.297 99.797 39.266
860.488 99.803 39.526
866.724 99.802 39.800
873.004 99.798 40.130
879.330 99.798 40.513
885.702 99.806 40.876
892.120 99.809 41.216
898.585 99.813 41.614
905.097 99.826 42.038
911.655 99.847 42.420
918.262 99.872 42.718
924.916 99.891 42.985
931.618 99.907 43.288
938.369 99.926 43.622
945.169 99.946 43.938
952.018 99.957 44.262
958.917 99.964 44.628
965.865 99.975 44.997
972.864 99.992 45.340
979.914 100.013 45.664
987.015 100.032 45.969
994.167 100.044 46.265
1,001.371 100.047 46.574
1,008.628 100.050 46.913
1,015.937 100.058 47.270
1,023.299 100.071 47.650
1,030.714 100.090 48.039
1,038.183 100.108 48.384
1,045.706 100.113 48.720
1,053.283 100.111 49.126
1,060.916 100.116 49.643
1,068.604 100.143 50.155
1,076.347 100.172 50.538
1,084.147 100.193 50.885
1,092.003 100.213 51.247
1,099.916 100.232 51.638
1,107.887 100.246 52.027
1,115.915 100.253 52.449
1,124.001 100.266 52.958
1,132.146 100.298 53.478
1,140.350 100.335 53.886
1,148.614 100.359 54.227
1,156.937 100.370 54.599
1,165.321 100.389 55.061
1,173.765 100.417 55.433
1,182.271 100.418 55.747
1,190.838 100.405 56.230
1,199.467 100.404 56.717
1,208.159 100.378 57.215
1,216.914 100.350 58.074
1,225.732 100.380 59.104
1,234.614 100.444 59.909
1,243.561 100.507 60.544
1,252.572 100.562 61.035
1,261.649 100.592 61.493
1,270.791 100.615 62.084
1,280.000 100.644 62.719
1,289.275 100.679 63.380
1,298.618 100.735 64.011
1,308.028 100.780 64.489
1,317.507 100.791 65.084
1,327.054 100.819 65.957
1,336.670 100.891 66.731
1,346.357 100.943 67.212
1,356.113 100.948 67.707
1,365.940 100.924 68.579
1,375.838 100.951 69.895
1,385.808 101.059 71.105
1,395.850 101.168 71.892
1,405.965 101.229 72.647
1,416.153 101.298 73.715
1,426.415 101.417 74.747
1,436.751 101.537 75.591
1,447.163 101.663 76.447
1,457.649 101.798 77.039
1,468.212 101.877 77.600
1,478.851 101.966 78.655
1,489.568 102.145 79.767
1,500.362 102.384 80.152
1,511.234 102.497 79.672
1,522.185 102.442 79.892
1,533.215 102.444 81.121
1,544.326 102.537 82.304
1,555.517 102.626 83.325
1,566.789 102.707 84.711
1,578.142 102.888 86.443
1,589.578 103.158 87.661
1,601.097 103.403 88.238
1,612.699 103.569 88.696
1,624.385 103.721 89.622
1,636.156 103.943 90.758
1,648.012 104.232 91.618
1,659.955 104.488 91.881
1,671.983 104.664 92.237
1,684.099 104.852 93.103
1,696.303 105.141 94.149
1,708.595 105.493 94.524
1,720.976 105.761 94.398
1,733.447 105.997 94.671
1,746.008 106.294 94.999
1,758.661 106.584 94.962
1,771.405 106.834 95.040
1,784.241 107.140 95.462
1,797.170 107.517 95.552
1,810.193 107.901 95.078
1,823.311 108.241 94.174
1,836.523 108.546 93.279
1,849.831 108.864 92.325
1,863.236 109.183 91.121
1,876.738 109.481 89.511
1,890.338 109.695 87.560
1,904.036 109.821 85.889
1,917.833 109.954 84.599
1,931.730 110.092 83.353
1,945.729 110.254 82.154
1,959.828 110.392 80.745
1,974.030 110.529 79.513
1,988.334 110.690 78.033
2,002.743 110.828 76.291
2,017.255 110.929 74.151
2,031.873 110.902 71.903
2,046.597 110.785 70.518
2,061.428 110.747 69.837
2,076.365 110.782 68.874
2,091.412 110.793 67.574
2,106.567 110.751 66.452
2,121.832 110.747 65.548
2,137.208 110.733 64.251
2,152.695 110.640 63.180
2,168.294 110.567 62.600
2,184.007 110.555 62.092
2,199.833 110.584 61.064
2,215.774 110.513 59.504
2,231.830 110.334 58.488
2,248.003 110.173 58.068
2,264.293 110.054 57.935
2,280.701 110.002 57.737
2,297.228 109.959 57.054
2,313.874 109.834 55.876
2,330.642 109.554 54.984
2,347.530 109.177 55.172
2,364.542 108.837 56.744
2,381.676 108.669 59.126
2,398.935 108.713 61.430
2,416.318 108.863 62.678
2,433.828 108.928 63.221
2,451.464 108.937 64.161
2,469.229 109.025 65.535
2,487.122 109.208 66.342
2,505.145 109.297 66.563
2,523.298 109.343 67.552
2,541.583 109.527 68.894
2,560.000 109.808 69.599
2,578.551 110.061 69.660
2,597.236 110.301 69.682
2,616.057 110.586 69.402
2,635.014 110.860 68.439
2,654.108 111.058 66.916
2,673.341 111.160 65.255
2,692.713 111.199 63.681
2,712.226 111.168 62.121
2,731.879 111.041 61.032
2,751.676 110.918 60.708
2,771.615 110.854 60.504
2,791.700 110.789 60.226
2,811.930 110.703 60.091
2,832.306 110.614 60.233
2,852.830 110.537 60.728
2,873.503 110.544 61.603
2,894.325 110.663 61.969
2,915.299 110.748 61.332
2,936.424 110.679 60.362
2,957.703 110.478 59.990
2,979.136 110.230 60.561
3,000.724 110.008 62.178
3,022.468 109.926 64.660
3,044.370 110.030 67.005
3,066.431 110.208 68.807
3,088.652 110.442 70.229
3,111.033 110.686 71.024
3,133.577 110.902 71.436
3,156.284 111.064 71.450
3,179.156 111.114 71.610
3,202.193 111.131 72.495
3,225.398 111.176 74.030
3,248.771 111.325 76.233
3,272.312 111.641 78.484
3,296.025 112.082 80.334
3,319.909 112.621 81.507
3,343.967 113.206 81.764
3,368.198 113.769 80.875
3,392.606 114.191 79.059
3,417.190 114.452 77.315
3,441.952 114.672 76.225
3,466.894 114.930 75.453
3,492.017 115.231 74.710
3,517.321 115.585 73.760
3,542.809 115.960 72.166
3,568.482 116.260 69.928
3,594.341 116.476 67.643
3,620.387 116.663 65.319
3,646.622 116.783 62.810
3,673.046 116.823 60.475
3,699.663 116.820 58.466
3,726.472 116.799 56.804
3,753.476 116.784 55.419
3,780.675 116.785 54.108
3,808.071 116.786 52.712
3,835.666 116.753 51.257
3,863.461 116.662 49.939
3,891.457 116.521 49.066
3,919.656 116.368 48.837
3,948.060 116.255 49.231
3,976.669 116.215 50.093
4,005.486 116.289 51.250
4,034.511 116.484 52.239
4,063.747 116.744 52.860
4,093.194 117.054 53.197
4,122.855 117.409 53.148
4,152.731 117.803 52.695
4,182.824 118.234 51.686
4,213.134 118.652 49.936
4,243.664 119.010 47.653
4,274.416 119.307 45.126
4,305.390 119.565 42.491
4,336.588 119.801 39.616
4,368.013 120.002 36.325
4,399.666 120.112 32.499
4,431.547 120.053 28.646
4,463.660 119.857 25.638
4,496.005 119.648 23.777
4,528.585 119.532 22.625
4,561.401 119.533 21.545
4,594.455 119.619 20.049
4,627.749 119.704 17.888
4,661.283 119.718 15.415
4,695.061 119.667 13.019
4,729.083 119.573 11.007
4,763.352 119.500 9.522
4,797.869 119.515 8.329
4,832.637 119.660 6.818
4,867.656 119.871 4.317
4,902.929 120.044 0.613
4,938.458 120.070 -4.011
4,974.244 119.892 -8.764
5,010.289 119.564 -12.956
5,046.596 119.158 -16.555
5,083.166 118.691 -19.625
5,120.000 118.151 -22.024
5,157.102 117.573 -23.142
5,194.472 117.135 -23.052
5,232.113 116.954 -22.923
5,270.027 116.952 -24.007
5,308.216 116.929 -26.684
5,346.682 116.737 -30.385
5,385.426 116.331 -34.151
5,424.451 115.751 -37.220
5,463.759 115.080 -39.285
5,503.352 114.381 -40.519
5,543.231 113.679 -41.070
5,583.399 112.972 -40.885
5,623.859 112.288 -39.734
5,664.612 111.704 -37.755
5,705.660 111.283 -35.420
5,747.006 111.022 -33.324
5,788.651 110.847 -31.805
5,830.598 110.685 -30.696
5,872.849 110.539 -29.774
5,915.406 110.421 -29.165
5,958.271 110.302 -29.034
6,001.447 110.123 -29.300
6,044.937 109.852 -29.454
6,088.740 109.543 -29.019
6,132.862 109.293 -28.238
6,177.303 109.098 -27.717
6,222.066 108.869 -27.500
6,267.154 108.572 -27.097
6,312.568 108.254 -26.127
6,358.312 107.979 -24.624
6,404.387 107.785 -22.784
6,450.796 107.704 -20.947
6,497.541 107.719 -19.667
6,544.625 107.751 -19.094
6,592.050 107.742 -19.002
6,639.818 107.686 -19.171
6,687.934 107.584 -19.484
6,736.397 107.426 -19.750
6,785.211 107.242 -19.777
6,834.380 107.069 -19.789
6,883.905 106.872 -20.088
6,933.789 106.588 -20.461
6,984.034 106.209 -20.391
7,034.643 105.788 -19.457
7,085.619 105.412 -17.678
7,136.964 105.140 -15.566
7,188.681 104.936 -13.595
7,240.773 104.743 -11.698
7,293.243 104.557 -9.574
7,346.093 104.412 -7.162
7,399.326 104.330 -4.591
7,452.944 104.318 -1.984
7,506.951 104.372 0.583
7,561.350 104.498 3.054
7,616.143 104.717 5.236
7,671.332 105.008 6.659
7,726.922 105.272 7.049
7,782.915 105.409 6.838
7,839.312 105.419 6.917
7,896.120 105.404 7.734
7,953.338 105.460 8.986
8,010.971 105.596 10.206
8,069.022 105.777 11.138
8,127.493 105.976 11.781
8,186.389 106.182 12.174
8,245.711 106.374 12.342
8,305.462 106.552 12.485
8,365.647 106.762 12.644
8,426.268 107.010 12.393
8,487.328 107.219 11.532
8,548.831 107.332 10.508
8,610.779 107.389 9.927
8,673.177 107.480 9.919
8,736.026 107.674 10.117
8,799.331 107.972 9.906
8,863.095 108.306 8.908
8,927.320 108.606 7.179
8,992.011 108.851 4.970
9,057.171 109.044 2.443
9,122.803 109.190 -0.369
9,188.910 109.262 -3.565
9,255.497 109.214 -6.847
9,322.566 109.065 -9.692
9,390.121 108.892 -12.012
9,458.166 108.742 -14.075
9,526.704 108.616 -16.094
9,595.738 108.499 -18.193
9,665.273 108.370 -20.473
9,735.312 108.199 -22.877
9,805.857 107.986 -25.149
9,876.915 107.774 -27.324
9,948.487 107.563 -29.659
10,020.578 107.327 -32.136
10,093.191 107.060 -34.715
10,166.331 106.745 -37.417
10,240.000 106.364 -40.090
10,314.203 105.923 -42.535
10,388.944 105.449 -44.761
10,464.227 104.948 -46.876
10,540.055 104.410 -48.866
10,616.433 103.827 -50.593
10,693.363 103.208 -52.011
10,770.853 102.562 -53.160
10,848.902 101.880 -53.988
10,927.518 101.171 -54.363
11,006.703 100.457 -54.309
11,086.462 99.746 -53.839
11,166.799 99.057 -53.023
11,247.719 98.392 -51.998
11,329.224 97.730 -50.603
11,411.320 97.103 -48.784
11,494.012 96.537 -46.906
11,577.302 95.987 -45.180
11,661.195 95.405 -43.390
11,745.697 94.784 -41.150
11,830.812 94.150 -38.135
11,916.543 93.571 -34.120
12,002.895 93.162 -29.380
12,089.873 92.968 -24.819
12,177.480 92.900 -21.093
12,265.724 92.876 -18.083
12,354.606 92.898 -15.572
12,444.133 92.958 -13.784
12,534.309 92.977 -13.119
12,625.137 92.805 -13.257
12,716.624 92.404 -12.866
12,808.773 91.906 -11.431
12,901.592 91.348 -9.128
12,995.082 90.714 -5.299
13,089.250 90.124 0.661
13,184.100 89.816 8.797
13,279.637 90.081 18.120
13,375.867 90.972 26.399
13,472.794 92.212 31.659
13,570.423 93.479 33.476
13,668.760 94.628 32.546
13,767.810 95.589 29.468
13,867.577 96.317 24.786
13,968.067 96.775 19.123
14,069.285 96.963 13.217
14,171.237 96.925 7.553
14,273.928 96.676 2.431
14,377.362 96.246 -1.599
14,481.547 95.730 -3.993
14,586.486 95.294 -4.754
14,692.186 95.120 -4.777
14,798.651 95.248 -5.686
14,905.889 95.478 -8.852
15,013.902 95.563 -14.288
15,122.700 95.356 -21.126
15,232.285 94.781 -28.286
15,342.664 93.799 -34.308
15,453.844 92.472 -37.384
15,565.829 91.065 -36.615
15,678.625 90.006 -33.099
15,792.239 89.560 -29.447
15,906.676 89.590 -27.966
16,021.942 89.770 -29.567
16,138.044 89.876 -34.042
16,254.986 89.786 -41.153
16,372.777 89.370 -50.774
16,491.422 88.476 -62.299
16,610.924 87.010 -74.712
16,731.295 84.949 -87.738
16,852.535 82.205 -102.187
16,974.656 78.713 -122.456
17,097.662 75.097 -158.591
17,221.559 74.256 149.464
17,346.354 76.540 100.904
17,472.053 78.551 67.663
17,598.662 79.463 46.537
17,726.189 79.430 33.721
17,854.641 78.940 27.685
17,984.021 78.478 25.692
18,114.342 78.217 24.999
18,245.605 78.120 23.626
18,377.820 77.994 20.069
18,510.994 77.540 14.204
18,645.133 76.507 7.498
18,780.242 74.735 2.821
18,916.332 72.110 5.917
19,053.408 68.875 25.307
19,191.477 67.607 58.071
19,330.547 69.747 82.630
19,470.623 71.928 90.142
19,611.715 73.233 89.359
19,753.830 73.924 87.784
19,896.975 74.291 87.439
