* Measurement data measured by REW V5.20 Beta 4
* Source: Microphone (E.A.R.S Gain: 18dB  ), no input selected, R, volume: no control
* Format: 256k Log Swept Sine, 1 sweep at -13.0 dBFS  With no timing reference
* Dated: Jan 28, 2019 10:41:21 AM
* REW Settings:
*  C-weighting compensation: Off
*  Target level: 75.0 dB
* Note: ; 
* Measurement: MyAUdioSession R
* Smoothing: 1/48 octave
* Frequency Step: 1/96 octave
* Start Frequency: 20.1 Hz
*
* Freq(Hz) SPL(dB) Phase(degrees)
20.145 105.044 142.158
20.291 105.123 141.922
20.438 105.202 141.533
20.586 105.318 140.923
20.735 105.501 140.069
20.885 105.683 139.209
21.037 105.844 138.433
21.189 105.999 137.681
21.343 106.148 136.952
21.497 106.291 136.246
21.653 106.434 135.529
21.810 106.578 134.793
21.968 106.722 134.053
22.127 106.864 133.312
22.288 107.004 132.569
22.449 107.143 131.825
22.612 107.280 131.080
22.776 107.416 130.329
22.941 107.551 129.571
23.107 107.685 128.809
23.274 107.817 128.042
23.443 107.947 127.271
23.613 108.077 126.493
23.784 108.205 125.710
23.956 108.331 124.922
24.130 108.456 124.127
24.305 108.580 123.328
24.481 108.701 122.523
24.658 108.822 121.713
24.837 108.941 120.898
25.017 109.059 120.078
25.198 109.175 119.254
25.381 109.290 118.425
25.565 109.404 117.591
25.750 109.517 116.751
25.937 109.629 115.905
26.125 109.739 115.053
26.314 109.849 114.194
26.505 109.958 113.326
26.697 110.065 112.449
26.890 110.172 111.562
27.085 110.277 110.664
27.281 110.381 109.754
27.479 110.483 108.832
27.678 110.583 107.897
27.879 110.681 106.949
28.081 110.777 105.989
28.284 110.870 105.017
28.489 110.960 104.035
28.696 111.046 103.044
28.904 111.130 102.045
29.113 111.209 101.043
29.324 111.285 100.039
29.537 111.357 99.035
29.751 111.426 98.035
29.966 111.491 97.042
30.183 111.553 96.058
30.402 111.612 95.086
30.622 111.668 94.126
30.844 111.722 93.181
31.068 111.775 92.251
31.293 111.826 91.335
31.520 111.877 90.433
31.748 111.927 89.544
31.978 111.977 88.664
32.210 112.027 87.792
32.443 112.077 86.926
32.678 112.127 86.062
32.915 112.178 85.200
33.154 112.228 84.336
33.394 112.278 83.469
33.636 112.328 82.598
33.880 112.376 81.722
34.125 112.424 80.842
34.372 112.470 79.958
34.621 112.515 79.069
34.872 112.558 78.177
35.125 112.599 77.282
35.380 112.639 76.384
35.636 112.676 75.485
35.894 112.712 74.584
36.154 112.746 73.681
36.416 112.778 72.777
36.680 112.807 71.872
36.946 112.835 70.966
37.214 112.860 70.058
37.483 112.884 69.149
37.755 112.904 68.239
38.029 112.923 67.327
38.304 112.939 66.415
38.582 112.952 65.502
38.861 112.963 64.589
39.143 112.970 63.677
39.427 112.975 62.766
39.712 112.977 61.858
40.000 112.975 60.953
40.290 112.971 60.055
40.582 112.963 59.163
40.876 112.953 58.281
41.172 112.939 57.409
41.470 112.923 56.550
41.771 112.905 55.704
42.074 112.884 54.872
42.379 112.862 54.056
42.686 112.838 53.256
42.995 112.814 52.472
43.306 112.788 51.702
43.620 112.762 50.947
43.936 112.736 50.206
44.255 112.710 49.476
44.575 112.684 48.758
44.898 112.659 48.050
45.224 112.633 47.351
45.552 112.607 46.661
45.882 112.582 45.980
46.214 112.556 45.308
46.549 112.531 44.645
46.886 112.506 43.992
47.226 112.480 43.349
47.568 112.455 42.718
47.913 112.431 42.098
48.260 112.406 41.489
48.610 112.383 40.891
48.962 112.359 40.304
49.317 112.337 39.727
49.674 112.315 39.160
50.034 112.293 38.601
50.397 112.272 38.051
50.762 112.252 37.508
51.130 112.232 36.974
51.500 112.212 36.447
51.874 112.192 35.928
52.249 112.173 35.414
52.628 112.154 34.907
53.009 112.135 34.404
53.394 112.117 33.906
53.781 112.098 33.410
54.170 112.078 32.918
54.563 112.058 32.429
54.958 112.038 31.944
55.356 112.017 31.462
55.758 111.995 30.985
56.162 111.972 30.514
56.569 111.948 30.048
56.978 111.924 29.589
57.391 111.899 29.136
57.807 111.874 28.689
58.226 111.848 28.249
58.648 111.821 27.816
59.073 111.795 27.389
59.501 111.768 26.968
59.932 111.741 26.552
60.367 111.714 26.142
60.804 111.687 25.737
61.245 111.659 25.336
61.688 111.632 24.940
62.135 111.604 24.548
62.586 111.576 24.160
63.039 111.548 23.777
63.496 111.520 23.398
63.956 111.491 23.025
64.420 111.462 22.656
64.886 111.432 22.293
65.357 111.402 21.935
65.830 111.371 21.585
66.307 111.339 21.242
66.788 111.307 20.908
67.272 111.275 20.582
67.759 111.242 20.267
68.250 111.209 19.961
68.745 111.175 19.667
69.243 111.142 19.383
69.745 111.109 19.109
70.250 111.076 18.846
70.759 111.043 18.592
71.272 111.010 18.349
71.788 110.978 18.114
72.309 110.947 17.888
72.833 110.916 17.670
73.360 110.886 17.459
73.892 110.856 17.256
74.427 110.827 17.059
74.967 110.799 16.869
75.510 110.771 16.685
76.057 110.743 16.509
76.608 110.716 16.340
77.163 110.690 16.178
77.723 110.665 16.025
78.286 110.640 15.879
78.853 110.617 15.741
79.424 110.595 15.610
80.000 110.575 15.485
80.580 110.556 15.363
81.164 110.538 15.244
81.752 110.522 15.128
82.344 110.508 15.013
82.941 110.496 14.897
83.542 110.485 14.778
84.147 110.476 14.654
84.757 110.468 14.523
85.371 110.460 14.384
85.990 110.454 14.238
86.613 110.448 14.085
87.241 110.442 13.926
87.873 110.437 13.759
88.510 110.432 13.583
89.151 110.426 13.396
89.797 110.421 13.197
90.448 110.414 12.986
91.103 110.405 12.765
91.763 110.393 12.537
92.428 110.378 12.307
93.098 110.360 12.082
93.773 110.339 11.867
94.452 110.315 11.671
95.137 110.288 11.500
95.826 110.260 11.361
96.520 110.233 11.257
97.220 110.207 11.186
97.924 110.185 11.142
98.634 110.168 11.114
99.349 110.155 11.092
100.069 110.146 11.068
100.794 110.140 11.037
101.524 110.137 10.998
102.260 110.135 10.951
103.001 110.135 10.894
103.747 110.136 10.828
104.499 110.138 10.750
105.256 110.141 10.662
106.019 110.143 10.565
106.787 110.146 10.463
107.561 110.148 10.357
108.340 110.150 10.247
109.126 110.152 10.135
109.916 110.154 10.021
110.713 110.156 9.904
111.515 110.158 9.786
112.323 110.159 9.667
113.137 110.161 9.550
113.957 110.163 9.433
114.783 110.166 9.315
115.614 110.169 9.196
116.452 110.173 9.075
117.296 110.176 8.952
118.146 110.180 8.828
119.002 110.184 8.705
119.865 110.188 8.580
120.733 110.193 8.455
121.608 110.198 8.327
122.489 110.203 8.198
123.377 110.209 8.066
124.271 110.215 7.932
125.171 110.221 7.796
126.078 110.227 7.659
126.992 110.233 7.521
127.912 110.240 7.381
128.839 110.248 7.237
129.773 110.256 7.088
130.713 110.264 6.931
131.660 110.272 6.767
132.615 110.280 6.596
133.575 110.288 6.420
134.543 110.295 6.240
135.518 110.302 6.057
136.500 110.308 5.872
137.490 110.314 5.684
138.486 110.320 5.491
139.489 110.326 5.296
140.500 110.332 5.096
141.518 110.337 4.893
142.544 110.343 4.685
143.577 110.347 4.470
144.617 110.351 4.250
145.665 110.353 4.026
146.721 110.354 3.801
147.784 110.354 3.581
148.855 110.353 3.366
149.933 110.351 3.154
151.020 110.348 2.947
152.114 110.346 2.743
153.217 110.343 2.543
154.327 110.339 2.345
155.445 110.336 2.148
156.572 110.332 1.955
157.706 110.328 1.766
158.849 110.323 1.577
160.000 110.319 1.389
161.159 110.313 1.207
162.327 110.306 1.035
163.504 110.301 0.873
164.688 110.297 0.715
165.882 110.293 0.554
167.084 110.289 0.391
168.295 110.285 0.235
169.514 110.282 0.089
170.742 110.280 -0.053
171.980 110.281 -0.200
173.226 110.283 -0.358
174.481 110.285 -0.525
175.746 110.287 -0.697
177.019 110.288 -0.868
178.302 110.291 -1.042
179.594 110.295 -1.224
180.895 110.299 -1.416
182.206 110.302 -1.615
183.527 110.305 -1.820
184.856 110.306 -2.030
186.196 110.307 -2.240
187.545 110.307 -2.448
188.904 110.307 -2.657
190.273 110.307 -2.872
191.652 110.305 -3.089
193.041 110.302 -3.302
194.440 110.298 -3.510
195.849 110.293 -3.717
197.268 110.286 -3.916
198.697 110.279 -4.097
200.137 110.274 -4.265
201.587 110.270 -4.425
203.048 110.268 -4.582
204.520 110.267 -4.736
206.002 110.268 -4.887
207.494 110.271 -5.041
208.998 110.276 -5.204
210.512 110.281 -5.373
212.038 110.289 -5.546
213.574 110.298 -5.729
215.122 110.308 -5.928
216.681 110.319 -6.148
218.251 110.330 -6.384
219.833 110.340 -6.628
221.426 110.350 -6.882
223.030 110.360 -7.149
224.646 110.370 -7.432
226.274 110.378 -7.725
227.914 110.385 -8.024
229.565 110.392 -8.332
231.229 110.399 -8.654
232.905 110.403 -8.992
234.592 110.406 -9.337
236.292 110.407 -9.682
238.004 110.409 -10.028
239.729 110.411 -10.387
241.466 110.411 -10.767
243.216 110.407 -11.161
244.979 110.399 -11.547
246.754 110.390 -11.922
248.542 110.381 -12.297
250.343 110.371 -12.684
252.157 110.358 -13.080
253.984 110.340 -13.472
255.825 110.321 -13.851
257.678 110.301 -14.219
259.546 110.281 -14.583
261.426 110.260 -14.944
263.321 110.238 -15.298
265.229 110.215 -15.642
267.151 110.193 -15.983
269.087 110.171 -16.323
271.037 110.149 -16.658
273.001 110.126 -16.985
274.979 110.105 -17.313
276.972 110.084 -17.647
278.979 110.063 -17.982
281.000 110.042 -18.318
283.037 110.023 -18.662
285.088 110.006 -19.029
287.153 109.987 -19.420
289.234 109.967 -19.822
291.330 109.948 -20.234
293.441 109.928 -20.676
295.568 109.904 -21.155
297.710 109.874 -21.651
299.867 109.837 -22.144
302.040 109.796 -22.633
304.228 109.749 -23.116
306.433 109.697 -23.584
308.654 109.639 -24.014
310.890 109.579 -24.391
313.143 109.523 -24.721
315.412 109.475 -25.035
317.698 109.433 -25.367
320.000 109.395 -25.750
322.319 109.353 -26.188
324.655 109.303 -26.652
327.007 109.243 -27.106
329.377 109.177 -27.524
331.764 109.109 -27.892
334.168 109.044 -28.220
336.589 108.983 -28.534
339.028 108.928 -28.866
341.485 108.874 -29.244
343.959 108.816 -29.671
346.452 108.750 -30.114
348.962 108.676 -30.541
351.491 108.600 -30.949
354.038 108.521 -31.351
356.604 108.437 -31.747
359.188 108.348 -32.124
361.791 108.257 -32.473
364.412 108.163 -32.801
367.053 108.067 -33.118
369.713 107.967 -33.421
372.392 107.861 -33.696
375.090 107.752 -33.920
377.809 107.645 -34.092
380.546 107.540 -34.232
383.304 107.438 -34.351
386.081 107.338 -34.452
388.879 107.239 -34.542
391.697 107.141 -34.624
394.536 107.043 -34.693
397.395 106.944 -34.739
400.274 106.848 -34.769
403.175 106.751 -34.792
406.096 106.654 -34.786
409.039 106.559 -34.741
412.003 106.471 -34.702
414.989 106.384 -34.701
417.996 106.293 -34.699
421.025 106.203 -34.668
424.076 106.117 -34.610
427.149 106.037 -34.553
430.244 105.960 -34.518
433.362 105.884 -34.509
436.502 105.806 -34.533
439.665 105.722 -34.567
442.851 105.633 -34.571
446.060 105.546 -34.554
449.293 105.461 -34.546
452.548 105.372 -34.550
455.828 105.279 -34.542
459.131 105.185 -34.506
462.458 105.091 -34.443
465.809 105.000 -34.363
469.184 104.913 -34.282
472.584 104.829 -34.214
476.009 104.746 -34.163
479.458 104.661 -34.130
482.933 104.575 -34.106
486.432 104.489 -34.094
489.957 104.400 -34.107
493.507 104.306 -34.138
497.084 104.207 -34.169
500.686 104.103 -34.211
504.314 103.992 -34.274
507.968 103.871 -34.342
511.649 103.738 -34.384
515.357 103.596 -34.373
519.091 103.446 -34.296
522.853 103.289 -34.146
526.642 103.125 -33.900
530.458 102.961 -33.553
534.302 102.801 -33.118
538.174 102.648 -32.631
542.074 102.498 -32.110
546.002 102.348 -31.520
549.958 102.203 -30.858
553.943 102.065 -30.138
557.958 101.937 -29.360
562.001 101.820 -28.524
566.073 101.719 -27.657
570.175 101.632 -26.820
574.307 101.551 -26.058
578.469 101.467 -25.342
582.660 101.383 -24.620
586.883 101.306 -23.896
591.135 101.233 -23.186
595.419 101.158 -22.434
599.734 101.091 -21.629
604.080 101.038 -20.854
608.457 100.990 -20.158
612.866 100.942 -19.549
617.307 100.882 -19.012
621.780 100.805 -18.480
626.286 100.709 -17.875
630.824 100.604 -17.134
635.396 100.504 -16.245
640.000 100.420 -15.279
644.638 100.347 -14.274
649.309 100.292 -13.223
654.014 100.257 -12.205
658.753 100.232 -11.306
663.527 100.199 -10.487
668.335 100.161 -9.661
673.178 100.125 -8.839
678.056 100.085 -8.003
682.970 100.045 -7.097
687.919 100.015 -6.174
692.904 99.987 -5.292
697.925 99.957 -4.413
702.982 99.930 -3.512
708.076 99.909 -2.620
713.208 99.885 -1.764
718.376 99.852 -0.878
723.581 99.820 0.070
728.825 99.789 1.047
734.106 99.758 2.087
739.426 99.731 3.196
744.784 99.712 4.362
750.181 99.704 5.570
755.617 99.709 6.773
761.093 99.722 7.959
766.608 99.743 9.165
772.163 99.778 10.408
777.758 99.824 11.624
783.394 99.869 12.814
789.071 99.915 14.033
794.789 99.968 15.300
800.548 100.033 16.638
806.349 100.124 18.015
812.193 100.239 19.328
818.078 100.371 20.543
824.006 100.515 21.685
829.977 100.674 22.745
835.992 100.844 23.671
842.050 101.012 24.420
848.151 101.164 25.085
854.297 101.310 25.771
860.488 101.461 26.480
866.724 101.625 27.160
873.004 101.796 27.774
879.330 101.969 28.326
885.702 102.146 28.847
892.120 102.335 29.337
898.585 102.543 29.730
905.097 102.764 29.949
911.655 102.983 29.954
918.262 103.189 29.758
924.916 103.378 29.422
931.618 103.549 28.989
938.369 103.698 28.535
945.169 103.833 28.125
952.018 103.967 27.714
958.917 104.098 27.230
965.865 104.221 26.674
972.864 104.333 26.063
979.914 104.431 25.410
987.015 104.517 24.718
994.167 104.591 23.998
1,001.371 104.654 23.258
1,008.628 104.701 22.500
1,015.937 104.730 21.765
1,023.299 104.745 21.062
1,030.714 104.748 20.384
1,038.183 104.740 19.735
1,045.706 104.720 19.132
1,053.283 104.688 18.586
1,060.916 104.645 18.125
1,068.604 104.595 17.779
1,076.347 104.546 17.545
1,084.147 104.504 17.378
1,092.003 104.470 17.239
1,099.916 104.441 17.092
1,107.887 104.410 16.916
1,115.915 104.370 16.737
1,124.001 104.320 16.609
1,132.146 104.264 16.568
1,140.350 104.208 16.632
1,148.614 104.158 16.783
1,156.937 104.115 16.992
1,165.321 104.083 17.237
1,173.765 104.063 17.486
1,182.271 104.050 17.718
1,190.838 104.044 17.950
1,199.467 104.048 18.154
1,208.159 104.058 18.288
1,216.914 104.066 18.361
1,225.732 104.069 18.407
1,234.614 104.069 18.440
1,243.561 104.068 18.451
1,252.572 104.060 18.445
1,261.649 104.045 18.444
1,270.791 104.028 18.448
1,280.000 104.008 18.455
1,289.275 103.986 18.469
1,298.618 103.962 18.497
1,308.028 103.934 18.545
1,317.507 103.902 18.610
1,327.054 103.866 18.685
1,336.670 103.823 18.788
1,346.357 103.777 18.955
1,356.113 103.731 19.189
1,365.940 103.690 19.463
1,375.838 103.653 19.778
1,385.808 103.623 20.129
1,395.850 103.602 20.488
1,405.965 103.588 20.826
1,416.153 103.581 21.118
1,426.415 103.576 21.343
1,436.751 103.565 21.508
1,447.163 103.544 21.640
1,457.649 103.510 21.772
1,468.212 103.465 21.935
1,478.851 103.411 22.155
1,489.568 103.351 22.451
1,500.362 103.289 22.819
1,511.234 103.225 23.256
1,522.185 103.163 23.763
1,533.215 103.104 24.337
1,544.326 103.049 24.977
1,555.517 103.001 25.682
1,566.789 102.963 26.438
1,578.142 102.932 27.232
1,589.578 102.906 28.072
1,601.097 102.890 28.958
1,612.699 102.885 29.872
1,624.385 102.893 30.787
1,636.156 102.910 31.693
1,648.012 102.934 32.596
1,659.955 102.967 33.498
1,671.983 103.009 34.390
1,684.099 103.059 35.264
1,696.303 103.117 36.124
1,708.595 103.182 36.965
1,720.976 103.253 37.783
1,733.447 103.330 38.579
1,746.008 103.416 39.345
1,758.661 103.510 40.084
1,771.405 103.613 40.778
1,784.241 103.720 41.405
1,797.170 103.829 41.976
1,810.193 103.940 42.510
1,823.311 104.055 43.015
1,836.523 104.179 43.474
1,849.831 104.312 43.838
1,863.236 104.443 44.064
1,876.738 104.561 44.181
1,890.338 104.661 44.277
1,904.036 104.753 44.419
1,917.833 104.850 44.587
1,931.730 104.955 44.711
1,945.729 105.060 44.748
1,959.828 105.155 44.700
1,974.030 105.233 44.608
1,988.334 105.295 44.527
2,002.743 105.345 44.498
2,017.255 105.391 44.538
2,031.873 105.435 44.645
2,046.597 105.482 44.817
2,061.428 105.534 45.038
2,076.365 105.593 45.278
2,091.412 105.659 45.515
2,106.567 105.733 45.734
2,121.832 105.813 45.918
2,137.208 105.895 46.053
2,152.695 105.977 46.141
2,168.294 106.057 46.190
2,184.007 106.134 46.209
2,199.833 106.205 46.206
2,215.774 106.271 46.201
2,231.830 106.334 46.202
2,248.003 106.396 46.206
2,264.293 106.458 46.204
2,280.701 106.521 46.174
2,297.228 106.582 46.098
2,313.874 106.633 45.983
2,330.642 106.674 45.864
2,347.530 106.703 45.775
2,364.542 106.726 45.734
2,381.676 106.745 45.738
2,398.935 106.760 45.805
2,416.318 106.775 45.949
2,433.828 106.795 46.154
2,451.464 106.825 46.394
2,469.229 106.862 46.643
2,487.122 106.906 46.885
2,505.145 106.954 47.099
2,523.298 107.001 47.276
2,541.583 107.045 47.438
2,560.000 107.086 47.611
2,578.551 107.126 47.799
2,597.236 107.162 48.001
2,616.057 107.193 48.241
2,635.014 107.224 48.531
2,654.108 107.261 48.858
2,673.341 107.304 49.219
2,692.713 107.355 49.620
2,712.226 107.411 50.033
2,731.879 107.473 50.440
2,751.676 107.541 50.840
2,771.615 107.613 51.226
2,791.700 107.691 51.592
2,811.930 107.771 51.930
2,832.306 107.852 52.250
2,852.830 107.932 52.544
2,873.503 108.007 52.812
2,894.325 108.071 53.095
2,915.299 108.123 53.484
2,936.424 108.179 54.077
2,957.703 108.269 54.812
2,979.136 108.397 55.487
3,000.724 108.541 56.001
3,022.468 108.684 56.400
3,044.370 108.826 56.753
3,066.431 108.969 57.088
3,088.652 109.115 57.406
3,111.033 109.265 57.698
3,133.577 109.417 57.953
3,156.284 109.571 58.172
3,179.156 109.727 58.362
3,202.193 109.885 58.529
3,225.398 110.047 58.676
3,248.771 110.212 58.798
3,272.312 110.378 58.893
3,296.025 110.545 58.962
3,319.909 110.714 59.009
3,343.967 110.886 59.040
3,368.198 111.061 59.063
3,392.606 111.236 59.073
3,417.190 111.414 59.072
3,441.952 111.594 59.068
3,466.894 111.779 59.066
3,492.017 111.971 59.079
3,517.321 112.172 59.111
3,542.809 112.386 59.138
3,568.482 112.614 59.141
3,594.341 112.858 59.105
3,620.387 113.120 58.987
3,646.622 113.397 58.754
3,673.046 113.684 58.389
3,699.663 113.975 57.875
3,726.472 114.265 57.220
3,753.476 114.551 56.452
3,780.675 114.827 55.593
3,808.071 115.090 54.704
3,835.666 115.349 53.882
3,863.461 115.626 53.159
3,891.457 115.941 52.455
3,919.656 116.299 51.618
3,948.060 116.690 50.497
3,976.669 117.098 49.008
4,005.486 117.504 47.143
4,034.511 117.894 44.941
4,063.747 118.260 42.461
4,093.194 118.600 39.753
4,122.855 118.914 36.862
4,152.731 119.204 33.831
4,182.824 119.481 30.685
4,213.134 119.759 27.374
4,243.664 120.038 23.727
4,274.416 120.284 19.590
4,305.390 120.458 15.044
4,336.588 120.549 10.333
4,368.013 120.572 5.627
4,399.666 120.543 0.960
4,431.547 120.465 -3.690
4,463.660 120.335 -8.348
4,496.005 120.150 -13.001
4,528.585 119.910 -17.596
4,561.401 119.615 -22.078
4,594.455 119.266 -26.394
4,627.749 118.863 -30.501
4,661.283 118.412 -34.364
4,695.061 117.919 -37.952
4,729.083 117.387 -41.245
4,763.352 116.824 -44.228
4,797.869 116.236 -46.891
4,832.637 115.630 -49.218
4,867.656 115.010 -51.217
4,902.929 114.381 -52.924
4,938.458 113.741 -54.355
4,974.244 113.095 -55.534
5,010.289 112.446 -56.472
5,046.596 111.790 -57.128
5,083.166 111.127 -57.487
5,120.000 110.461 -57.532
5,157.102 109.791 -57.231
5,194.472 109.122 -56.569
5,232.113 108.462 -55.511
5,270.027 107.817 -54.040
5,308.216 107.195 -52.162
5,346.682 106.604 -49.876
5,385.426 106.058 -47.187
5,424.451 105.568 -44.131
5,463.759 105.143 -40.742
5,503.352 104.801 -37.062
5,543.231 104.565 -33.179
5,583.399 104.445 -29.245
5,623.859 104.446 -25.504
5,664.612 104.556 -22.210
5,705.660 104.742 -19.550
5,747.006 104.958 -17.596
5,788.651 105.162 -16.265
5,830.598 105.329 -15.360
5,872.849 105.456 -14.659
5,915.406 105.558 -13.994
5,958.271 105.661 -13.278
6,001.447 105.802 -12.551
6,044.937 106.010 -12.060
6,088.740 106.264 -12.278
6,132.862 106.466 -13.474
6,177.303 106.530 -15.196
6,222.066 106.474 -16.756
6,267.154 106.364 -17.969
6,312.568 106.230 -18.960
6,358.312 106.069 -19.809
6,404.387 105.877 -20.506
6,450.796 105.655 -21.008
6,497.541 105.412 -21.265
6,544.625 105.162 -21.234
6,592.050 104.920 -20.893
6,639.818 104.694 -20.266
6,687.934 104.495 -19.407
6,736.397 104.329 -18.394
6,785.211 104.203 -17.308
6,834.380 104.117 -16.213
6,883.905 104.071 -15.168
6,933.789 104.065 -14.234
6,984.034 104.091 -13.480
7,034.643 104.136 -12.977
7,085.619 104.188 -12.766
7,136.964 104.233 -12.834
7,188.681 104.263 -13.127
7,240.773 104.273 -13.595
7,293.243 104.255 -14.194
7,346.093 104.204 -14.878
7,399.326 104.120 -15.589
7,452.944 104.004 -16.280
7,506.951 103.860 -16.908
7,561.350 103.696 -17.435
7,616.143 103.520 -17.836
7,671.332 103.334 -18.113
7,726.922 103.139 -18.293
7,782.915 102.937 -18.365
7,839.312 102.734 -18.308
7,896.120 102.537 -18.130
7,953.338 102.346 -17.857
8,010.971 102.165 -17.524
8,069.022 101.994 -17.168
8,127.493 101.831 -16.810
8,186.389 101.675 -16.456
8,245.711 101.522 -16.107
8,305.462 101.371 -15.766
8,365.647 101.222 -15.444
8,426.268 101.066 -15.161
8,487.328 100.898 -14.904
8,548.831 100.718 -14.617
8,610.779 100.531 -14.230
8,673.177 100.348 -13.714
8,736.026 100.180 -13.108
8,799.331 100.024 -12.512
8,863.095 99.868 -11.981
8,927.320 99.701 -11.484
8,992.011 99.529 -10.969
9,057.171 99.358 -10.425
9,122.803 99.183 -9.868
9,188.910 98.994 -9.291
9,255.497 98.786 -8.647
9,322.566 98.562 -7.864
9,390.121 98.336 -6.879
9,458.166 98.120 -5.694
9,526.704 97.917 -4.361
9,595.738 97.728 -2.909
9,665.273 97.550 -1.327
9,735.312 97.384 0.399
9,805.857 97.234 2.296
9,876.915 97.116 4.418
9,948.487 97.050 6.777
10,020.578 97.059 9.269
10,093.191 97.151 11.681
10,166.331 97.319 13.778
10,240.000 97.542 15.405
10,314.203 97.798 16.514
10,388.944 98.060 17.081
10,464.227 98.300 17.126
10,540.055 98.500 16.752
10,616.433 98.650 16.076
10,693.363 98.745 15.212
10,770.853 98.790 14.299
10,848.902 98.789 13.457
10,927.518 98.758 12.735
11,006.703 98.710 12.102
11,086.462 98.655 11.489
11,166.799 98.599 10.802
11,247.719 98.525 9.985
11,329.224 98.415 9.112
11,411.320 98.258 8.336
11,494.012 98.059 7.748
11,577.302 97.829 7.406
11,661.195 97.581 7.378
11,745.697 97.341 7.718
11,830.812 97.133 8.342
11,916.543 96.964 9.085
12,002.895 96.843 9.818
12,089.873 96.757 10.405
12,177.480 96.679 10.737
12,265.724 96.592 10.878
12,354.606 96.482 10.938
12,444.133 96.336 11.028
12,534.309 96.164 11.307
12,625.137 95.989 11.862
12,716.624 95.832 12.611
12,808.773 95.698 13.389
12,901.592 95.576 14.109
12,995.082 95.452 14.856
13,089.250 95.320 15.810
13,184.100 95.197 17.123
13,279.637 95.121 18.833
13,375.867 95.143 20.757
13,472.794 95.286 22.503
13,570.423 95.527 23.697
13,668.760 95.803 24.161
13,767.810 96.055 24.054
13,867.577 96.296 23.707
13,968.067 96.564 23.099
14,069.285 96.856 21.908
14,171.237 97.126 20.048
14,273.928 97.346 17.754
14,377.362 97.548 15.090
14,481.547 97.747 11.621
14,586.486 97.837 6.989
14,692.186 97.692 1.716
14,798.651 97.297 -3.102
14,905.889 96.751 -6.731
15,013.902 96.176 -9.207
15,122.700 95.639 -11.039
15,232.285 95.129 -12.601
15,342.664 94.628 -13.904
15,453.844 94.162 -14.966
15,565.829 93.752 -16.113
15,678.625 93.341 -17.740
15,792.239 92.814 -19.614
15,906.676 92.116 -20.593
16,021.942 91.396 -19.672
16,138.044 90.947 -17.634
16,254.986 90.810 -16.435
16,372.777 90.749 -16.713
16,491.422 90.663 -17.820
16,610.924 90.591 -19.640
16,731.295 90.504 -22.758
16,852.535 90.253 -27.330
16,974.656 89.711 -32.261
17,097.662 88.925 -36.254
17,221.559 88.039 -39.190
17,346.354 87.124 -41.557
17,472.053 86.156 -43.460
17,598.662 85.132 -44.706
17,726.189 84.096 -45.443
17,854.641 83.053 -45.980
17,984.021 81.950 -46.097
18,114.342 80.789 -45.373
18,245.605 79.621 -43.895
18,377.820 78.447 -41.921
18,510.994 77.223 -39.052
18,645.133 75.983 -34.504
18,780.242 74.890 -28.238
18,916.332 74.124 -21.147
19,053.408 73.763 -14.491
19,191.477 73.691 -9.543
19,330.547 73.689 -6.787
19,470.623 73.588 -5.543
19,611.715 73.340 -4.974
19,753.830 72.981 -4.732
19,896.975 72.607 -4.610
