* Measurement data measured by REW V5.20 Beta 4
* Source: Microphone (E.A.R.S Gain: 18dB  ), no input selected, L, volume: no control
* Format: 256k Log Swept Sine, 1 sweep at -13.0 dBFS  With no timing reference
* Dated: Jan 28, 2019 10:42:04 AM
* REW Settings:
*  C-weighting compensation: Off
*  Target level: 75.0 dB
* Note: ; 
* Measurement: MyAudioSession L
* Smoothing: 1/48 octave
* Frequency Step: 1/96 octave
* Start Frequency: 20.1 Hz
*
* Freq(Hz) SPL(dB) Phase(degrees)
20.145 108.853 82.411
20.291 108.891 82.193
20.438 108.930 81.836
20.586 108.987 81.280
20.735 109.078 80.505
20.885 109.166 79.731
21.037 109.243 79.045
21.189 109.314 78.389
21.343 109.381 77.766
21.497 109.444 77.175
21.653 109.505 76.581
21.810 109.567 75.980
21.968 109.627 75.384
22.127 109.685 74.797
22.288 109.741 74.217
22.449 109.796 73.647
22.612 109.849 73.086
22.776 109.901 72.528
22.941 109.951 71.975
23.107 110.001 71.427
23.274 110.048 70.885
23.443 110.095 70.348
23.613 110.141 69.815
23.784 110.185 69.287
23.956 110.228 68.762
24.130 110.270 68.240
24.305 110.311 67.723
24.481 110.351 67.208
24.658 110.390 66.697
24.837 110.428 66.189
25.017 110.465 65.683
25.198 110.501 65.179
25.381 110.536 64.678
25.565 110.571 64.179
25.750 110.604 63.682
25.937 110.637 63.186
26.125 110.669 62.691
26.314 110.700 62.198
26.505 110.730 61.705
26.697 110.760 61.214
26.890 110.788 60.724
27.085 110.816 60.234
27.281 110.843 59.745
27.479 110.869 59.257
27.678 110.895 58.770
27.879 110.919 58.284
28.081 110.943 57.799
28.284 110.966 57.316
28.489 110.988 56.834
28.696 111.010 56.353
28.904 111.031 55.874
29.113 111.051 55.397
29.324 111.071 54.921
29.537 111.090 54.447
29.751 111.108 53.975
29.966 111.126 53.505
30.183 111.144 53.036
30.402 111.160 52.569
30.622 111.177 52.105
30.844 111.193 51.641
31.068 111.209 51.180
31.293 111.224 50.720
31.520 111.239 50.262
31.748 111.253 49.805
31.978 111.267 49.350
32.210 111.281 48.896
32.443 111.294 48.444
32.678 111.307 47.994
32.915 111.319 47.545
33.154 111.331 47.097
33.394 111.343 46.651
33.636 111.355 46.207
33.880 111.365 45.765
34.125 111.376 45.325
34.372 111.386 44.887
34.621 111.396 44.451
34.872 111.405 44.018
35.125 111.414 43.587
35.380 111.423 43.158
35.636 111.431 42.732
35.894 111.439 42.308
36.154 111.447 41.887
36.416 111.455 41.468
36.680 111.462 41.051
36.946 111.469 40.636
37.214 111.476 40.224
37.483 111.482 39.814
37.755 111.488 39.406
38.029 111.494 39.000
38.304 111.500 38.596
38.582 111.505 38.195
38.861 111.510 37.796
39.143 111.514 37.399
39.427 111.519 37.004
39.712 111.523 36.611
40.000 111.526 36.222
40.290 111.529 35.835
40.582 111.532 35.451
40.876 111.535 35.070
41.172 111.537 34.693
41.470 111.539 34.318
41.771 111.541 33.947
42.074 111.542 33.580
42.379 111.544 33.215
42.686 111.545 32.853
42.995 111.547 32.494
43.306 111.548 32.137
43.620 111.549 31.781
43.936 111.550 31.428
44.255 111.551 31.075
44.575 111.551 30.724
44.898 111.551 30.373
45.224 111.551 30.025
45.552 111.550 29.679
45.882 111.549 29.336
46.214 111.547 28.997
46.549 111.545 28.663
46.886 111.542 28.334
47.226 111.540 28.011
47.568 111.537 27.693
47.913 111.535 27.380
48.260 111.533 27.071
48.610 111.532 26.764
48.962 111.531 26.458
49.317 111.530 26.154
49.674 111.529 25.848
50.034 111.528 25.543
50.397 111.527 25.237
50.762 111.526 24.931
51.130 111.525 24.627
51.500 111.523 24.325
51.874 111.521 24.027
52.249 111.518 23.732
52.628 111.516 23.441
53.009 111.514 23.154
53.394 111.513 22.869
53.781 111.512 22.586
54.170 111.511 22.303
54.563 111.511 22.018
54.958 111.511 21.731
55.356 111.512 21.440
55.758 111.512 21.147
56.162 111.512 20.851
56.569 111.511 20.554
56.978 111.510 20.255
57.391 111.509 19.955
57.807 111.507 19.656
58.226 111.504 19.356
58.648 111.502 19.056
59.073 111.498 18.757
59.501 111.494 18.458
59.932 111.490 18.160
60.367 111.485 17.863
60.804 111.480 17.568
61.245 111.474 17.275
61.688 111.467 16.984
62.135 111.460 16.696
62.586 111.453 16.410
63.039 111.446 16.126
63.496 111.438 15.844
63.956 111.430 15.564
64.420 111.421 15.285
64.886 111.412 15.009
65.357 111.403 14.735
65.830 111.393 14.463
66.307 111.383 14.194
66.788 111.372 13.928
67.272 111.361 13.665
67.759 111.350 13.405
68.250 111.338 13.148
68.745 111.326 12.894
69.243 111.314 12.643
69.745 111.302 12.395
70.250 111.289 12.149
70.759 111.276 11.907
71.272 111.263 11.667
71.788 111.249 11.431
72.309 111.235 11.198
72.833 111.221 10.968
73.360 111.206 10.741
73.892 111.192 10.517
74.427 111.177 10.296
74.967 111.161 10.079
75.510 111.145 9.867
76.057 111.129 9.660
76.608 111.112 9.457
77.163 111.096 9.260
77.723 111.079 9.068
78.286 111.062 8.881
78.853 111.045 8.699
79.424 111.028 8.522
80.000 111.012 8.350
80.580 110.995 8.183
81.164 110.978 8.020
81.752 110.961 7.862
82.344 110.944 7.711
82.941 110.927 7.567
83.542 110.910 7.431
84.147 110.893 7.305
84.757 110.877 7.186
85.371 110.863 7.075
85.990 110.849 6.968
86.613 110.837 6.864
87.241 110.825 6.763
87.873 110.815 6.665
88.510 110.805 6.570
89.151 110.797 6.478
89.797 110.791 6.387
90.448 110.786 6.295
91.103 110.783 6.195
91.763 110.782 6.083
92.428 110.781 5.957
93.098 110.780 5.815
93.773 110.778 5.660
94.452 110.775 5.495
95.137 110.770 5.320
95.826 110.762 5.142
96.520 110.752 4.964
97.220 110.738 4.794
97.924 110.723 4.640
98.634 110.706 4.507
99.349 110.689 4.397
100.069 110.672 4.308
100.794 110.658 4.234
101.524 110.646 4.173
102.260 110.635 4.120
103.001 110.627 4.073
103.747 110.621 4.030
104.499 110.618 3.986
105.256 110.617 3.939
106.019 110.617 3.886
106.787 110.619 3.828
107.561 110.622 3.764
108.340 110.627 3.694
109.126 110.633 3.615
109.916 110.639 3.524
110.713 110.647 3.420
111.515 110.654 3.305
112.323 110.660 3.181
113.137 110.665 3.050
113.957 110.670 2.916
114.783 110.674 2.779
115.614 110.678 2.640
116.452 110.682 2.500
117.296 110.685 2.358
118.146 110.688 2.214
119.002 110.691 2.069
119.865 110.694 1.922
120.733 110.697 1.771
121.608 110.699 1.619
122.489 110.701 1.463
123.377 110.703 1.306
124.271 110.705 1.147
125.171 110.706 0.986
126.078 110.706 0.823
126.992 110.706 0.661
127.912 110.705 0.501
128.839 110.704 0.345
129.773 110.703 0.194
130.713 110.702 0.048
131.660 110.702 -0.097
132.615 110.703 -0.244
133.575 110.705 -0.395
134.543 110.706 -0.548
135.518 110.708 -0.703
136.500 110.710 -0.863
137.490 110.712 -1.027
138.486 110.714 -1.195
139.489 110.716 -1.368
140.500 110.718 -1.543
141.518 110.719 -1.723
142.544 110.720 -1.909
143.577 110.720 -2.100
144.617 110.719 -2.293
145.665 110.717 -2.485
146.721 110.714 -2.673
147.784 110.711 -2.856
148.855 110.709 -3.038
149.933 110.706 -3.221
151.020 110.703 -3.408
152.114 110.700 -3.600
153.217 110.696 -3.794
154.327 110.692 -3.989
155.445 110.686 -4.182
156.572 110.679 -4.373
157.706 110.671 -4.561
158.849 110.662 -4.744
160.000 110.653 -4.918
161.159 110.642 -5.077
162.327 110.633 -5.218
163.504 110.625 -5.344
164.688 110.621 -5.464
165.882 110.619 -5.586
167.084 110.620 -5.717
168.295 110.624 -5.858
169.514 110.628 -6.014
170.742 110.634 -6.186
171.980 110.641 -6.374
173.226 110.649 -6.579
174.481 110.656 -6.801
175.746 110.665 -7.043
177.019 110.674 -7.314
178.302 110.683 -7.621
179.594 110.691 -7.976
180.895 110.694 -8.388
182.206 110.689 -8.865
183.527 110.668 -9.396
184.856 110.625 -9.929
186.196 110.557 -10.374
187.545 110.474 -10.642
188.904 110.393 -10.708
190.273 110.327 -10.620
191.652 110.283 -10.459
193.041 110.259 -10.295
194.440 110.250 -10.171
195.849 110.250 -10.108
197.268 110.255 -10.108
198.697 110.260 -10.158
200.137 110.264 -10.242
201.587 110.267 -10.350
203.048 110.268 -10.472
204.520 110.268 -10.602
206.002 110.268 -10.735
207.494 110.268 -10.872
208.998 110.268 -11.015
210.512 110.267 -11.162
212.038 110.267 -11.310
213.574 110.268 -11.458
215.122 110.270 -11.611
216.681 110.275 -11.781
218.251 110.279 -11.974
219.833 110.281 -12.178
221.426 110.282 -12.386
223.030 110.283 -12.600
224.646 110.285 -12.821
226.274 110.286 -13.052
227.914 110.286 -13.295
229.565 110.285 -13.546
231.229 110.283 -13.804
232.905 110.280 -14.070
234.592 110.276 -14.344
236.292 110.270 -14.628
238.004 110.263 -14.922
239.729 110.254 -15.221
241.466 110.244 -15.530
243.216 110.231 -15.844
244.979 110.215 -16.153
246.754 110.197 -16.453
248.542 110.179 -16.748
250.343 110.160 -17.042
252.157 110.138 -17.332
253.984 110.115 -17.614
255.825 110.090 -17.886
257.678 110.065 -18.149
259.546 110.039 -18.412
261.426 110.012 -18.677
263.321 109.983 -18.935
265.229 109.951 -19.171
267.151 109.920 -19.383
269.087 109.890 -19.576
271.037 109.860 -19.749
273.001 109.833 -19.890
274.979 109.810 -20.003
276.972 109.795 -20.110
278.979 109.786 -20.231
281.000 109.782 -20.376
283.037 109.783 -20.550
285.088 109.789 -20.773
287.153 109.795 -21.061
289.234 109.798 -21.403
291.330 109.796 -21.780
293.441 109.789 -22.173
295.568 109.780 -22.576
297.710 109.769 -23.001
299.867 109.755 -23.454
302.040 109.734 -23.921
304.228 109.709 -24.390
306.433 109.679 -24.856
308.654 109.645 -25.316
310.890 109.609 -25.771
313.143 109.570 -26.226
315.412 109.529 -26.689
317.698 109.483 -27.154
320.000 109.433 -27.607
322.319 109.381 -28.047
324.655 109.327 -28.482
327.007 109.271 -28.919
329.377 109.211 -29.351
331.764 109.147 -29.763
334.168 109.081 -30.153
336.589 109.016 -30.532
339.028 108.950 -30.914
341.485 108.881 -31.302
343.959 108.806 -31.675
346.452 108.728 -32.010
348.962 108.653 -32.315
351.491 108.580 -32.626
354.038 108.507 -32.957
356.604 108.429 -33.294
359.188 108.346 -33.618
361.791 108.261 -33.917
364.412 108.176 -34.195
367.053 108.091 -34.468
369.713 108.004 -34.736
372.392 107.915 -34.989
375.090 107.824 -35.215
377.809 107.734 -35.421
380.546 107.646 -35.626
383.304 107.557 -35.833
386.081 107.466 -36.037
388.879 107.374 -36.234
391.697 107.281 -36.423
394.536 107.189 -36.615
397.395 107.094 -36.813
400.274 106.994 -36.993
403.175 106.893 -37.143
406.096 106.793 -37.276
409.039 106.691 -37.411
412.003 106.583 -37.530
414.989 106.474 -37.610
417.996 106.367 -37.686
421.025 106.259 -37.776
424.076 106.149 -37.860
427.149 106.037 -37.929
430.244 105.924 -37.989
433.362 105.809 -38.042
436.502 105.690 -38.088
439.665 105.566 -38.111
442.851 105.439 -38.092
446.060 105.311 -38.032
449.293 105.181 -37.935
452.548 105.052 -37.788
455.828 104.927 -37.597
459.131 104.807 -37.404
462.458 104.689 -37.222
465.809 104.568 -37.032
469.184 104.448 -36.816
472.584 104.329 -36.583
476.009 104.212 -36.363
479.458 104.089 -36.145
482.933 103.961 -35.895
486.432 103.833 -35.619
489.957 103.704 -35.319
493.507 103.574 -34.990
497.084 103.443 -34.643
500.686 103.309 -34.271
504.314 103.170 -33.852
507.968 103.027 -33.360
511.649 102.884 -32.776
515.357 102.746 -32.091
519.091 102.621 -31.323
522.853 102.514 -30.530
526.642 102.421 -29.767
530.458 102.335 -29.037
534.302 102.257 -28.348
538.174 102.180 -27.709
542.074 102.100 -27.099
546.002 102.016 -26.490
549.958 101.927 -25.868
553.943 101.835 -25.234
557.958 101.740 -24.604
562.001 101.638 -23.953
566.073 101.532 -23.244
570.175 101.425 -22.465
574.307 101.319 -21.615
578.469 101.213 -20.695
582.660 101.108 -19.665
586.883 101.016 -18.484
591.135 100.953 -17.208
595.419 100.923 -15.960
599.734 100.914 -14.834
604.080 100.913 -13.835
608.457 100.913 -12.947
612.866 100.907 -12.171
617.307 100.887 -11.476
621.780 100.847 -10.782
626.286 100.789 -10.002
630.824 100.722 -9.072
635.396 100.660 -7.952
640.000 100.616 -6.647
644.638 100.602 -5.244
649.309 100.620 -3.837
654.014 100.668 -2.527
658.753 100.732 -1.388
663.527 100.797 -0.386
668.335 100.861 0.529
673.178 100.923 1.381
678.056 100.981 2.182
682.970 101.033 2.963
687.919 101.084 3.746
692.904 101.135 4.532
697.925 101.189 5.328
702.982 101.247 6.113
708.076 101.307 6.891
713.208 101.373 7.672
718.376 101.447 8.415
723.581 101.520 9.081
728.825 101.587 9.730
734.106 101.655 10.393
739.426 101.725 11.062
744.784 101.798 11.753
750.181 101.876 12.470
755.617 101.966 13.189
761.093 102.068 13.879
766.608 102.182 14.514
772.163 102.304 15.067
777.758 102.430 15.528
783.394 102.553 15.911
789.071 102.671 16.251
794.789 102.791 16.567
800.548 102.916 16.836
806.349 103.044 17.023
812.193 103.169 17.117
818.078 103.288 17.133
824.006 103.400 17.060
829.977 103.500 16.902
835.992 103.583 16.693
842.050 103.642 16.495
848.151 103.684 16.426
854.297 103.729 16.535
860.488 103.799 16.713
866.724 103.888 16.809
873.004 103.981 16.774
879.330 104.064 16.647
885.702 104.137 16.493
892.120 104.206 16.336
898.585 104.273 16.166
905.097 104.338 15.966
911.655 104.398 15.735
918.262 104.452 15.483
924.916 104.498 15.222
931.618 104.538 14.967
938.369 104.575 14.722
945.169 104.610 14.491
952.018 104.646 14.255
958.917 104.682 13.984
965.865 104.716 13.661
972.864 104.743 13.280
979.914 104.757 12.852
987.015 104.754 12.413
994.167 104.734 12.009
1,001.371 104.701 11.684
1,008.628 104.658 11.463
1,015.937 104.611 11.360
1,023.299 104.570 11.359
1,030.714 104.540 11.407
1,038.183 104.518 11.463
1,045.706 104.500 11.509
1,053.283 104.484 11.552
1,060.916 104.469 11.606
1,068.604 104.458 11.674
1,076.347 104.448 11.744
1,084.147 104.441 11.799
1,092.003 104.433 11.838
1,099.916 104.425 11.865
1,107.887 104.415 11.878
1,115.915 104.403 11.882
1,124.001 104.386 11.890
1,132.146 104.363 11.910
1,140.350 104.336 11.959
1,148.614 104.309 12.048
1,156.937 104.283 12.164
1,165.321 104.257 12.297
1,173.765 104.230 12.457
1,182.271 104.205 12.653
1,190.838 104.182 12.866
1,199.467 104.160 13.095
1,208.159 104.136 13.354
1,216.914 104.115 13.650
1,225.732 104.100 13.991
1,234.614 104.098 14.355
1,243.561 104.106 14.699
1,252.572 104.120 15.000
1,261.649 104.135 15.257
1,270.791 104.150 15.480
1,280.000 104.163 15.678
1,289.275 104.174 15.862
1,298.618 104.184 16.041
1,308.028 104.194 16.221
1,317.507 104.205 16.405
1,327.054 104.219 16.594
1,336.670 104.236 16.772
1,346.357 104.254 16.930
1,356.113 104.273 17.056
1,365.940 104.292 17.144
1,375.838 104.309 17.181
1,385.808 104.319 17.176
1,395.850 104.320 17.160
1,405.965 104.313 17.167
1,416.153 104.301 17.218
1,426.415 104.290 17.303
1,436.751 104.281 17.405
1,447.163 104.273 17.515
1,457.649 104.266 17.617
1,468.212 104.259 17.703
1,478.851 104.250 17.765
1,489.568 104.235 17.803
1,500.362 104.212 17.838
1,511.234 104.182 17.894
1,522.185 104.146 17.990
1,533.215 104.106 18.135
1,544.326 104.064 18.321
1,555.517 104.022 18.547
1,566.789 103.979 18.819
1,578.142 103.936 19.134
1,589.578 103.894 19.499
1,601.097 103.855 19.911
1,612.699 103.822 20.354
1,624.385 103.794 20.818
1,636.156 103.770 21.300
1,648.012 103.752 21.788
1,659.955 103.738 22.278
1,671.983 103.724 22.782
1,684.099 103.714 23.301
1,696.303 103.705 23.828
1,708.595 103.697 24.368
1,720.976 103.693 24.927
1,733.447 103.693 25.506
1,746.008 103.698 26.107
1,758.661 103.709 26.718
1,771.405 103.724 27.317
1,784.241 103.741 27.901
1,797.170 103.759 28.492
1,810.193 103.779 29.129
1,823.311 103.809 29.806
1,836.523 103.852 30.467
1,849.831 103.902 31.078
1,863.236 103.953 31.660
1,876.738 104.002 32.261
1,890.338 104.060 32.904
1,904.036 104.132 33.566
1,917.833 104.224 34.198
1,931.730 104.340 34.717
1,945.729 104.470 35.021
1,959.828 104.592 35.045
1,974.030 104.679 34.847
1,988.334 104.716 34.632
2,002.743 104.715 34.628
2,017.255 104.712 34.905
2,031.873 104.732 35.363
2,046.597 104.783 35.855
2,061.428 104.856 36.269
2,076.365 104.939 36.540
2,091.412 105.015 36.665
2,106.567 105.075 36.706
2,121.832 105.117 36.751
2,137.208 105.150 36.862
2,152.695 105.183 37.039
2,168.294 105.223 37.248
2,184.007 105.271 37.443
2,199.833 105.322 37.570
2,215.774 105.366 37.608
2,231.830 105.394 37.605
2,248.003 105.401 37.638
2,264.293 105.394 37.779
2,280.701 105.382 38.064
2,297.228 105.378 38.478
2,313.874 105.389 38.968
2,330.642 105.417 39.466
2,347.530 105.456 39.927
2,364.542 105.497 40.358
2,381.676 105.537 40.780
2,398.935 105.576 41.210
2,416.318 105.616 41.659
2,433.828 105.659 42.134
2,451.464 105.707 42.640
2,469.229 105.763 43.160
2,487.122 105.826 43.669
2,505.145 105.895 44.164
2,523.298 105.968 44.656
2,541.583 106.046 45.144
2,560.000 106.133 45.625
2,578.551 106.230 46.068
2,597.236 106.334 46.434
2,616.057 106.438 46.700
2,635.014 106.533 46.883
2,654.108 106.613 47.033
2,673.341 106.681 47.217
2,692.713 106.743 47.475
2,712.226 106.804 47.788
2,731.879 106.864 48.137
2,751.676 106.923 48.555
2,771.615 106.988 49.058
2,791.700 107.063 49.620
2,811.930 107.153 50.217
2,832.306 107.255 50.843
2,852.830 107.368 51.492
2,873.503 107.496 52.163
2,894.325 107.645 52.822
2,915.299 107.816 53.417
2,936.424 108.003 53.928
2,957.703 108.204 54.344
2,979.136 108.414 54.644
3,000.724 108.631 54.822
3,022.468 108.850 54.882
3,044.370 109.072 54.851
3,066.431 109.308 54.740
3,088.652 109.564 54.467
3,111.033 109.832 53.881
3,133.577 110.089 52.861
3,156.284 110.296 51.361
3,179.156 110.404 49.530
3,202.193 110.379 47.842
3,225.398 110.261 46.902
3,248.771 110.147 46.888
3,272.312 110.114 47.457
3,296.025 110.173 48.157
3,319.909 110.299 48.709
3,343.967 110.464 49.011
3,368.198 110.648 49.059
3,392.606 110.832 48.862
3,417.190 111.006 48.449
3,441.952 111.164 47.880
3,466.894 111.297 47.208
3,492.017 111.400 46.499
3,517.321 111.475 45.836
3,542.809 111.525 45.299
3,568.482 111.560 44.954
3,594.341 111.591 44.833
3,620.387 111.629 44.942
3,646.622 111.691 45.263
3,673.046 111.789 45.726
3,699.663 111.928 46.243
3,726.472 112.105 46.739
3,753.476 112.315 47.146
3,780.675 112.554 47.431
3,808.071 112.819 47.584
3,835.666 113.105 47.590
3,863.461 113.409 47.439
3,891.457 113.727 47.115
3,919.656 114.056 46.605
3,948.060 114.393 45.890
3,976.669 114.735 44.954
4,005.486 115.077 43.792
4,034.511 115.411 42.427
4,063.747 115.732 40.921
4,093.194 116.048 39.348
4,122.855 116.376 37.681
4,152.731 116.720 35.739
4,182.824 117.055 33.442
4,213.134 117.363 30.916
4,243.664 117.649 28.274
4,274.416 117.925 25.501
4,305.390 118.194 22.531
4,336.588 118.449 19.311
4,368.013 118.683 15.827
4,399.666 118.889 12.091
4,431.547 119.059 8.129
4,463.660 119.191 3.955
4,496.005 119.279 -0.430
4,528.585 119.319 -5.018
4,561.401 119.304 -9.792
4,594.455 119.226 -14.710
4,627.749 119.081 -19.699
4,661.283 118.867 -24.692
4,695.061 118.579 -29.645
4,729.083 118.214 -34.494
4,763.352 117.775 -39.147
4,797.869 117.267 -43.525
4,832.637 116.698 -47.559
4,867.656 116.075 -51.190
4,902.929 115.411 -54.398
4,938.458 114.715 -57.184
4,974.244 113.993 -59.564
5,010.289 113.250 -61.535
5,046.596 112.494 -63.084
5,083.166 111.732 -64.217
5,120.000 110.966 -64.947
5,157.102 110.201 -65.301
5,194.472 109.442 -65.285
5,232.113 108.697 -64.887
5,270.027 107.966 -64.131
5,308.216 107.253 -63.027
5,346.682 106.558 -61.594
5,385.426 105.887 -59.848
5,424.451 105.240 -57.781
5,463.759 104.616 -55.387
5,503.352 104.020 -52.618
5,543.231 103.459 -49.418
5,583.399 102.949 -45.777
5,623.859 102.507 -41.720
5,664.612 102.155 -37.311
5,705.660 101.912 -32.676
5,747.006 101.789 -27.994
5,788.651 101.787 -23.448
5,830.598 101.896 -19.189
5,872.849 102.100 -15.326
5,915.406 102.379 -11.966
5,958.271 102.716 -9.145
6,001.447 103.111 -6.874
6,044.937 103.559 -5.284
6,088.740 104.031 -4.561
6,132.862 104.479 -4.803
6,177.303 104.851 -5.944
6,222.066 105.110 -7.763
6,267.154 105.231 -9.931
6,312.568 105.215 -12.067
6,358.312 105.088 -13.853
6,404.387 104.888 -15.102
6,450.796 104.652 -15.778
6,497.541 104.411 -15.956
6,544.625 104.187 -15.721
6,592.050 103.996 -15.175
6,639.818 103.843 -14.431
6,687.934 103.725 -13.595
6,736.397 103.643 -12.747
6,785.211 103.591 -11.938
6,834.380 103.563 -11.183
6,883.905 103.558 -10.494
6,933.789 103.575 -9.880
6,984.034 103.609 -9.385
7,034.643 103.656 -9.049
7,085.619 103.712 -8.903
7,136.964 103.771 -8.976
7,188.681 103.826 -9.267
7,240.773 103.870 -9.770
7,293.243 103.893 -10.460
7,346.093 103.886 -11.301
7,399.326 103.849 -12.247
7,452.944 103.776 -13.252
7,506.951 103.666 -14.268
7,561.350 103.522 -15.228
7,616.143 103.348 -16.073
7,671.332 103.146 -16.764
7,726.922 102.918 -17.275
7,782.915 102.669 -17.566
7,839.312 102.405 -17.565
7,896.120 102.151 -17.189
7,953.338 101.947 -16.456
8,010.971 101.830 -15.663
8,069.022 101.781 -15.295
8,127.493 101.726 -15.543
8,186.389 101.604 -16.148
8,245.711 101.410 -16.754
8,305.462 101.166 -17.155
8,365.647 100.897 -17.292
8,426.268 100.617 -17.177
8,487.328 100.333 -16.844
8,548.831 100.047 -16.297
8,610.779 99.771 -15.507
8,673.177 99.517 -14.500
8,736.026 99.290 -13.401
8,799.331 99.091 -12.354
8,863.095 98.901 -11.436
8,927.320 98.685 -10.541
8,992.011 98.439 -9.422
9,057.171 98.198 -7.904
9,122.803 97.996 -6.052
9,188.910 97.847 -4.059
9,255.497 97.745 -2.062
9,322.566 97.681 -0.114
9,390.121 97.651 1.766
9,458.166 97.652 3.549
9,526.704 97.685 5.202
9,595.738 97.750 6.659
9,665.273 97.829 7.848
9,735.312 97.907 8.771
9,805.857 97.973 9.512
9,876.915 98.023 10.183
9,948.487 98.065 10.875
10,020.578 98.109 11.614
10,093.191 98.160 12.342
10,166.331 98.218 13.003
10,240.000 98.275 13.621
10,314.203 98.340 14.276
10,388.944 98.436 14.989
10,464.227 98.584 15.625
10,540.055 98.776 15.994
10,616.433 99.001 15.971
10,693.363 99.246 15.426
10,770.853 99.479 14.217
10,848.902 99.656 12.357
10,927.518 99.740 10.073
11,006.703 99.716 7.680
11,086.462 99.605 5.419
11,166.799 99.437 3.350
11,247.719 99.234 1.401
11,329.224 98.998 -0.527
11,411.320 98.708 -2.465
11,494.012 98.346 -4.321
11,577.302 97.903 -5.899
11,661.195 97.370 -6.927
11,745.697 96.775 -7.120
11,830.812 96.189 -6.370
11,916.543 95.688 -4.922
12,002.895 95.297 -3.275
12,089.873 94.979 -1.839
12,177.480 94.677 -0.707
12,265.724 94.338 0.285
12,354.606 93.942 1.509
12,444.133 93.520 3.328
12,534.309 93.131 5.767
12,625.137 92.815 8.498
12,716.624 92.553 11.140
12,808.773 92.262 13.744
12,901.592 91.906 16.997
12,995.082 91.568 21.614
13,089.250 91.408 27.646
13,184.100 91.582 34.416
13,279.637 92.146 40.814
13,375.867 93.010 45.616
13,472.794 93.973 48.077
13,570.423 94.864 48.404
13,668.760 95.615 47.401
13,767.810 96.243 45.779
13,867.577 96.786 43.828
13,968.067 97.273 41.591
14,069.285 97.732 39.028
14,171.237 98.170 35.988
14,273.928 98.552 32.391
14,377.362 98.863 28.341
14,481.547 99.117 23.771
14,586.486 99.287 18.439
14,692.186 99.300 12.309
14,798.651 99.079 5.831
14,905.889 98.606 -0.161
15,013.902 97.945 -4.891
15,122.700 97.214 -8.208
15,232.285 96.489 -10.556
15,342.664 95.767 -12.125
15,453.844 95.064 -12.559
15,565.829 94.516 -11.983
15,678.625 94.206 -11.632
15,792.239 94.019 -12.543
15,906.676 93.775 -14.563
16,021.942 93.382 -16.939
16,138.044 92.864 -18.878
16,254.986 92.301 -20.067
16,372.777 91.750 -20.652
16,491.422 91.233 -20.744
16,610.924 90.791 -20.316
16,731.295 90.520 -19.684
16,852.535 90.458 -20.010
16,974.656 90.453 -22.195
17,097.662 90.334 -26.083
17,221.559 89.999 -31.037
17,346.354 89.370 -36.130
17,472.053 88.461 -40.012
17,598.662 87.467 -42.110
17,726.189 86.600 -43.448
17,854.641 85.845 -45.267
17,984.021 85.056 -47.847
18,114.342 84.137 -50.835
18,245.605 83.028 -53.695
18,377.820 81.704 -55.716
18,510.994 80.209 -56.324
18,645.133 78.625 -55.154
18,780.242 77.056 -52.213
18,916.332 75.588 -47.875
19,053.408 74.268 -42.439
19,191.477 73.133 -36.280
19,330.547 72.212 -29.820
19,470.623 71.525 -23.683
19,611.715 71.023 -18.410
19,753.830 70.614 -14.025
19,896.975 70.300 -10.830
