Freq(Hz) SPL(dB) Phase(degrees)
20.145 107.480 78.308
20.291 107.519 78.093
20.438 107.558 77.741
20.586 107.616 77.193
20.735 107.707 76.427
20.885 107.796 75.664
21.037 107.874 74.988
21.189 107.946 74.343
21.343 108.014 73.729
21.497 108.078 73.147
21.653 108.140 72.563
21.810 108.203 71.972
21.968 108.264 71.385
22.127 108.324 70.808
22.288 108.382 70.238
22.449 108.438 69.676
22.612 108.492 69.123
22.776 108.545 68.574
22.941 108.597 68.028
23.107 108.648 67.487
23.274 108.698 66.951
23.443 108.746 66.419
23.613 108.793 65.891
23.784 108.839 65.367
23.956 108.884 64.845
24.130 108.927 64.326
24.305 108.970 63.809
24.481 109.011 63.295
24.658 109.051 62.783
24.837 109.090 62.273
25.017 109.128 61.765
25.198 109.165 61.258
25.381 109.201 60.753
25.565 109.235 60.250
25.750 109.269 59.748
25.937 109.302 59.247
26.125 109.333 58.747
26.314 109.364 58.249
26.505 109.393 57.751
26.697 109.422 57.255
26.890 109.450 56.759
27.085 109.476 56.264
27.281 109.502 55.770
27.479 109.527 55.276
27.678 109.551 54.783
27.879 109.573 54.292
28.081 109.595 53.801
28.284 109.616 53.312
28.489 109.636 52.825
28.696 109.654 52.339
28.904 109.672 51.857
29.113 109.689 51.377
29.324 109.705 50.900
29.537 109.720 50.428
29.751 109.735 49.959
29.966 109.749 49.493
30.183 109.763 49.032
30.402 109.776 48.573
30.622 109.789 48.118
30.844 109.802 47.665
31.068 109.814 47.213
31.293 109.826 46.762
31.520 109.839 46.312
31.748 109.850 45.861
31.978 109.862 45.409
32.210 109.872 44.957
32.443 109.882 44.505
32.678 109.891 44.054
32.915 109.899 43.603
33.154 109.906 43.156
33.394 109.913 42.712
33.636 109.918 42.273
33.880 109.922 41.840
34.125 109.926 41.414
34.372 109.929 40.996
34.621 109.932 40.586
34.872 109.935 40.184
35.125 109.938 39.789
35.380 109.941 39.401
35.636 109.945 39.020
35.894 109.949 38.643
36.154 109.954 38.271
36.416 109.960 37.900
36.680 109.967 37.532
36.946 109.974 37.163
37.214 109.981 36.793
37.483 109.990 36.421
37.755 109.998 36.045
38.029 110.007 35.665
38.304 110.016 35.279
38.582 110.025 34.888
38.861 110.033 34.492
39.143 110.040 34.090
39.427 110.046 33.685
39.712 110.050 33.277
40.000 110.053 32.869
40.290 110.055 32.462
40.582 110.054 32.059
40.876 110.052 31.664
41.172 110.049 31.278
41.470 110.044 30.904
41.771 110.038 30.543
42.074 110.032 30.197
42.379 110.027 29.866
42.686 110.021 29.551
42.995 110.017 29.249
43.306 110.014 28.960
43.620 110.013 28.680
43.936 110.015 28.407
44.255 110.018 28.137
44.575 110.024 27.867
44.898 110.031 27.594
45.224 110.041 27.315
45.552 110.052 27.028
45.882 110.065 26.733
46.214 110.078 26.429
46.549 110.092 26.118
46.886 110.107 25.798
47.226 110.122 25.472
47.568 110.139 25.136
47.913 110.157 24.791
48.260 110.176 24.433
48.610 110.197 24.058
48.962 110.219 23.660
49.317 110.241 23.236
49.674 110.263 22.781
50.034 110.285 22.291
50.397 110.303 21.767
50.762 110.319 21.208
51.130 110.329 20.617
51.500 110.334 19.998
51.874 110.333 19.359
52.249 110.324 18.705
52.628 110.307 18.044
53.009 110.282 17.385
53.394 110.250 16.733
53.781 110.210 16.096
54.170 110.163 15.479
54.563 110.108 14.889
54.958 110.047 14.330
55.356 109.979 13.807
55.758 109.906 13.324
56.162 109.828 12.887
56.569 109.745 12.500
56.978 109.659 12.167
57.391 109.570 11.890
57.807 109.479 11.671
58.226 109.388 11.509
58.648 109.296 11.403
59.073 109.206 11.352
59.501 109.117 11.354
59.932 109.030 11.410
60.367 108.945 11.518
60.804 108.863 11.680
61.245 108.785 11.895
61.688 108.712 12.162
62.135 108.644 12.481
62.586 108.583 12.849
63.039 108.529 13.261
63.496 108.483 13.714
63.956 108.446 14.202
64.420 108.419 14.720
64.886 108.402 15.261
65.357 108.396 15.818
65.830 108.402 16.383
66.307 108.418 16.948
66.788 108.446 17.504
67.272 108.485 18.044
67.759 108.535 18.560
68.250 108.595 19.047
68.745 108.665 19.497
69.243 108.743 19.907
69.745 108.830 20.270
70.250 108.924 20.583
70.759 109.024 20.843
71.272 109.130 21.046
71.788 109.241 21.192
72.309 109.356 21.278
72.833 109.474 21.306
73.360 109.594 21.274
73.892 109.715 21.186
74.427 109.836 21.040
74.967 109.958 20.841
75.510 110.079 20.590
76.057 110.198 20.289
76.608 110.316 19.943
77.163 110.431 19.553
77.723 110.545 19.123
78.286 110.656 18.655
78.853 110.764 18.148
79.424 110.871 17.602
80.000 110.974 17.014
80.580 111.073 16.384
81.164 111.168 15.710
81.752 111.256 14.994
82.344 111.337 14.239
82.941 111.410 13.451
83.542 111.471 12.640
84.147 111.521 11.821
84.757 111.558 11.014
85.371 111.583 10.246
85.990 111.597 9.542
86.613 111.606 8.921
87.241 111.614 8.390
87.873 111.626 7.937
88.510 111.646 7.539
89.151 111.676 7.165
89.797 111.716 6.784
90.448 111.762 6.375
91.103 111.812 5.926
91.763 111.864 5.434
92.428 111.915 4.902
93.098 111.963 4.337
93.773 112.008 3.748
94.452 112.049 3.144
95.137 112.086 2.529
95.826 112.121 1.910
96.520 112.152 1.289
97.220 112.181 0.666
97.924 112.209 0.042
98.634 112.235 -0.585
99.349 112.258 -1.213
100.069 112.281 -1.845
100.794 112.302 -2.480
101.524 112.320 -3.119
102.260 112.337 -3.760
103.001 112.352 -4.399
103.747 112.365 -5.036
104.499 112.377 -5.667
105.256 112.387 -6.294
106.019 112.398 -6.918
106.787 112.408 -7.543
107.561 112.417 -8.170
108.340 112.426 -8.800
109.126 112.434 -9.435
109.916 112.440 -10.074
110.713 112.446 -10.716
111.515 112.451 -11.364
112.323 112.454 -12.017
113.137 112.456 -12.677
113.957 112.456 -13.342
114.783 112.454 -14.013
115.614 112.451 -14.689
116.452 112.445 -15.371
117.296 112.438 -16.058
118.146 112.428 -16.752
119.002 112.415 -17.450
119.865 112.399 -18.149
120.733 112.380 -18.845
121.608 112.357 -19.535
122.489 112.333 -20.217
123.377 112.305 -20.890
124.271 112.275 -21.551
125.171 112.243 -22.196
126.078 112.210 -22.821
126.992 112.177 -23.426
127.912 112.145 -24.016
128.839 112.114 -24.595
129.773 112.086 -25.173
130.713 112.059 -25.759
131.660 112.034 -26.360
132.615 112.009 -26.980
133.575 111.982 -27.618
134.543 111.953 -28.271
135.518 111.922 -28.932
136.500 111.888 -29.594
137.490 111.852 -30.258
138.486 111.816 -30.930
139.489 111.777 -31.612
140.500 111.734 -32.300
141.518 111.689 -32.986
142.544 111.640 -33.663
143.577 111.590 -34.330
144.617 111.538 -34.988
145.665 111.486 -35.639
146.721 111.433 -36.287
147.784 111.379 -36.935
148.855 111.324 -37.584
149.933 111.266 -38.229
151.020 111.207 -38.868
152.114 111.147 -39.502
153.217 111.086 -40.132
154.327 111.022 -40.757
155.445 110.957 -41.374
156.572 110.891 -41.984
157.706 110.825 -42.592
158.849 110.757 -43.205
160.000 110.687 -43.825
161.159 110.612 -44.438
162.327 110.534 -45.032
163.504 110.455 -45.608
164.688 110.375 -46.176
165.882 110.295 -46.741
167.084 110.213 -47.304
168.295 110.130 -47.862
169.514 110.044 -48.414
170.742 109.956 -48.955
171.980 109.866 -49.485
173.226 109.776 -50.000
174.481 109.684 -50.503
175.746 109.593 -50.995
177.019 109.500 -51.477
178.302 109.408 -51.950
179.594 109.317 -52.417
180.895 109.225 -52.887
182.206 109.134 -53.361
183.527 109.041 -53.840
184.856 108.947 -54.325
186.196 108.850 -54.816
187.545 108.751 -55.312
188.904 108.647 -55.806
190.273 108.538 -56.291
191.652 108.425 -56.758
193.041 108.308 -57.199
194.440 108.188 -57.608
195.849 108.067 -57.989
197.268 107.947 -58.352
198.697 107.826 -58.708
200.137 107.703 -59.064
201.587 107.577 -59.420
203.048 107.444 -59.767
204.520 107.306 -60.089
206.002 107.160 -60.374
207.494 107.008 -60.607
208.998 106.848 -60.770
210.512 106.683 -60.833
212.038 106.514 -60.762
213.574 106.350 -60.528
215.122 106.200 -60.128
216.681 106.076 -59.596
218.251 105.984 -59.004
219.833 105.928 -58.447
221.426 105.900 -58.010
223.030 105.890 -57.744
224.646 105.885 -57.658
226.274 105.875 -57.727
227.914 105.852 -57.909
229.565 105.814 -58.148
231.229 105.761 -58.388
232.905 105.698 -58.591
234.592 105.631 -58.741
236.292 105.564 -58.839
238.004 105.503 -58.898
239.729 105.454 -58.955
241.466 105.417 -59.068
243.216 105.386 -59.291
244.979 105.351 -59.641
246.754 105.302 -60.088
248.542 105.235 -60.577
250.343 105.150 -61.047
252.157 105.051 -61.449
253.984 104.946 -61.763
255.825 104.841 -62.003
257.678 104.739 -62.186
259.546 104.641 -62.327
261.426 104.549 -62.436
263.321 104.463 -62.524
265.229 104.386 -62.608
267.151 104.318 -62.710
269.087 104.259 -62.853
271.037 104.207 -63.067
273.001 104.160 -63.387
274.979 104.109 -63.836
276.972 104.047 -64.413
278.979 103.964 -65.078
281.000 103.856 -65.769
283.037 103.725 -66.414
285.088 103.577 -66.969
287.153 103.419 -67.431
289.234 103.255 -67.804
291.330 103.085 -68.090
293.441 102.914 -68.291
295.568 102.743 -68.409
297.710 102.574 -68.451
299.867 102.409 -68.436
302.040 102.249 -68.369
304.228 102.095 -68.258
306.433 101.948 -68.124
308.654 101.807 -67.980
310.890 101.670 -67.830
313.143 101.537 -67.678
315.412 101.406 -67.528
317.698 101.277 -67.380
320.000 101.148 -67.227
322.319 101.020 -67.066
324.655 100.892 -66.906
327.007 100.763 -66.749
329.377 100.633 -66.595
331.764 100.499 -66.436
334.168 100.361 -66.251
336.589 100.220 -66.018
339.028 100.081 -65.741
341.485 99.945 -65.427
343.959 99.811 -65.079
346.452 99.683 -64.713
348.962 99.559 -64.347
351.491 99.436 -63.973
354.038 99.316 -63.577
356.604 99.201 -63.173
359.188 99.089 -62.781
361.791 98.977 -62.403
364.412 98.863 -62.012
367.053 98.750 -61.598
369.713 98.640 -61.172
372.392 98.532 -60.749
375.090 98.425 -60.335
377.809 98.315 -59.910
380.546 98.205 -59.450
383.304 98.099 -58.960
386.081 98.000 -58.467
388.879 97.906 -57.997
391.697 97.812 -57.551
394.536 97.715 -57.107
397.395 97.617 -56.649
400.274 97.519 -56.191
403.175 97.419 -55.726
406.096 97.319 -55.230
409.039 97.223 -54.717
412.003 97.131 -54.200
414.989 97.040 -53.678
417.996 96.950 -53.152
421.025 96.861 -52.619
424.076 96.773 -52.074
427.149 96.688 -51.533
430.244 96.602 -51.001
433.362 96.516 -50.460
436.502 96.431 -49.909
439.665 96.348 -49.364
442.851 96.264 -48.816
446.060 96.179 -48.245
449.293 96.096 -47.658
452.548 96.014 -47.061
455.828 95.935 -46.460
459.131 95.855 -45.850
462.458 95.774 -45.213
465.809 95.695 -44.540
469.184 95.622 -43.844
472.584 95.554 -43.152
476.009 95.490 -42.473
479.458 95.431 -41.808
482.933 95.374 -41.166
486.432 95.317 -40.533
489.957 95.259 -39.902
493.507 95.200 -39.272
497.084 95.141 -38.634
500.686 95.083 -37.971
504.314 95.030 -37.293
507.968 94.980 -36.636
511.649 94.927 -35.997
515.357 94.872 -35.346
519.091 94.819 -34.674
522.853 94.767 -33.983
526.642 94.720 -33.270
530.458 94.679 -32.556
534.302 94.639 -31.857
538.174 94.601 -31.167
542.074 94.563 -30.480
546.002 94.525 -29.789
549.958 94.487 -29.093
553.943 94.449 -28.368
557.958 94.420 -27.610
562.001 94.403 -26.875
566.073 94.389 -26.210
570.175 94.372 -25.581
574.307 94.353 -24.966
578.469 94.332 -24.356
582.660 94.311 -23.740
586.883 94.294 -23.139
591.135 94.275 -22.559
595.419 94.253 -21.978
599.734 94.229 -21.362
604.080 94.211 -20.746
608.457 94.193 -20.154
612.866 94.177 -19.573
617.307 94.162 -19.016
621.780 94.141 -18.474
626.286 94.117 -17.908
630.824 94.095 -17.336
635.396 94.073 -16.768
640.000 94.053 -16.196
644.638 94.033 -15.627
649.309 94.014 -15.081
654.014 93.989 -14.539
658.753 93.963 -13.977
663.527 93.937 -13.397
668.335 93.913 -12.792
673.178 93.893 -12.172
678.056 93.876 -11.577
682.970 93.857 -11.021
687.919 93.830 -10.475
692.904 93.796 -9.876
697.925 93.765 -9.210
702.982 93.742 -8.550
708.076 93.717 -7.931
713.208 93.687 -7.278
718.376 93.663 -6.612
723.581 93.637 -5.951
728.825 93.608 -5.252
734.106 93.581 -4.531
739.426 93.555 -3.759
744.784 93.540 -2.963
750.181 93.530 -2.191
755.617 93.522 -1.479
761.093 93.503 -0.796
766.608 93.479 -0.051
772.163 93.458 0.750
777.758 93.438 1.569
783.394 93.418 2.424
789.071 93.407 3.305
794.789 93.404 4.152
800.548 93.398 4.982
806.349 93.386 5.847
812.193 93.373 6.809
818.078 93.376 7.836
824.006 93.389 8.816
829.977 93.396 9.765
835.992 93.397 10.764
842.050 93.405 11.831
848.151 93.428 12.919
854.297 93.463 14.002
860.488 93.502 15.072
866.724 93.543 16.185
873.004 93.591 17.312
879.330 93.643 18.477
885.702 93.709 19.684
892.120 93.785 20.877
898.585 93.874 22.060
905.097 93.981 23.196
911.655 94.100 24.285
918.262 94.226 25.353
924.916 94.366 26.387
931.618 94.515 27.287
938.369 94.658 28.110
945.169 94.810 28.943
952.018 94.981 29.738
958.917 95.164 30.415
965.865 95.352 30.945
972.864 95.538 31.375
979.914 95.720 31.735
987.015 95.896 32.018
994.167 96.065 32.217
1001.371 96.228 32.314
1008.628 96.376 32.349
1015.937 96.513 32.431
1023.299 96.658 32.581
1030.714 96.822 32.667
1038.183 96.993 32.597
1045.706 97.154 32.406
1053.283 97.308 32.162
1060.916 97.461 31.831
1068.604 97.605 31.386
1076.347 97.736 30.826
1084.147 97.851 30.163
1092.003 97.950 29.416
1099.916 98.028 28.605
1107.887 98.084 27.755
1115.915 98.115 26.878
1124.001 98.117 25.997
1132.146 98.093 25.158
1140.350 98.042 24.382
1148.614 97.965 23.689
1156.937 97.859 23.118
1165.321 97.726 22.715
1173.765 97.565 22.547
1182.271 97.383 22.702
1190.838 97.192 23.247
1199.467 97.012 24.230
1208.159 96.863 25.682
1216.914 96.781 27.576
1225.732 96.800 29.721
1234.614 96.933 31.790
1243.561 97.163 33.482
1252.572 97.455 34.577
1261.649 97.766 34.963
1270.791 98.048 34.699
1280.000 98.277 33.998
1289.275 98.443 33.043
1298.618 98.543 31.974
1308.028 98.577 30.960
1317.507 98.561 30.176
1327.054 98.524 29.695
1336.670 98.488 29.474
1346.357 98.465 29.398
1356.113 98.459 29.338
1365.940 98.458 29.214
1375.838 98.447 29.069
1385.808 98.427 28.967
1395.850 98.403 28.917
1405.965 98.373 28.911
1416.153 98.339 28.966
1426.415 98.301 29.090
1436.751 98.266 29.274
1447.163 98.234 29.506
1457.649 98.205 29.787
1468.212 98.181 30.105
1478.851 98.162 30.457
1489.568 98.149 30.835
1500.362 98.142 31.231
1511.234 98.138 31.638
1522.185 98.140 32.057
1533.215 98.147 32.472
1544.326 98.157 32.864
1555.517 98.166 33.246
1566.789 98.178 33.622
1578.142 98.191 33.979
1589.578 98.204 34.328
1601.097 98.215 34.674
1612.699 98.225 35.022
1624.385 98.231 35.383
1636.156 98.235 35.777
1648.012 98.243 36.212
1659.955 98.256 36.656
1671.983 98.272 37.098
1684.099 98.289 37.552
1696.303 98.310 38.015
1708.595 98.337 38.477
1720.976 98.372 38.914
1733.447 98.415 39.259
1746.008 98.450 39.414
1758.661 98.436 39.439
1771.405 98.362 39.814
1784.241 98.315 40.731
1797.170 98.340 41.697
1810.193 98.390 42.450
1823.311 98.440 43.079
1836.523 98.487 43.659
1849.831 98.530 44.214
1863.236 98.571 44.764
1876.738 98.612 45.315
1890.338 98.654 45.868
1904.036 98.694 46.429
1917.833 98.734 47.000
1931.730 98.775 47.584
1945.729 98.818 48.190
1959.828 98.863 48.812
1974.030 98.910 49.451
1988.334 98.958 50.108
2002.743 99.010 50.781
2017.255 99.066 51.462
2031.873 99.126 52.160
2046.597 99.190 52.879
2061.428 99.258 53.614
2076.365 99.332 54.360
2091.412 99.414 55.111
2106.567 99.501 55.856
2121.832 99.592 56.604
2137.208 99.691 57.336
2152.695 99.795 58.038
2168.294 99.906 58.718
2184.007 100.021 59.356
2199.833 100.137 59.957
2215.774 100.251 60.545
2231.830 100.364 61.134
2248.003 100.478 61.736
2264.293 100.594 62.350
2280.701 100.714 62.973
2297.228 100.836 63.594
2313.874 100.961 64.216
2330.642 101.090 64.851
2347.530 101.222 65.519
2364.542 101.359 66.237
2381.676 101.508 67.031
2398.935 101.678 67.911
2416.318 101.887 68.823
2433.828 102.145 69.631
2451.464 102.448 70.114
2469.229 102.764 70.037
2487.122 103.030 69.342
2505.145 103.191 68.322
2523.298 103.235 67.526
2541.583 103.209 67.435
2560.000 103.195 68.195
2578.551 103.267 69.578
2597.236 103.456 71.195
2616.057 103.765 72.678
2635.014 104.169 73.665
2654.108 104.607 73.906
2673.341 105.021 73.516
2692.713 105.405 72.748
2712.226 105.767 71.636
2731.879 106.090 70.133
2751.676 106.349 68.324
2771.615 106.534 66.408
2791.700 106.651 64.580
2811.930 106.720 62.951
2832.306 106.757 61.568
2852.830 106.780 60.419
2873.503 106.798 59.466
2894.325 106.818 58.663
2915.299 106.841 57.964
2936.424 106.868 57.343
2957.703 106.899 56.782
2979.136 106.935 56.265
3000.724 106.975 55.786
3022.468 107.020 55.336
3044.370 107.069 54.897
3066.431 107.121 54.446
3088.652 107.176 53.980
3111.033 107.232 53.491
3133.577 107.286 52.972
3156.284 107.337 52.417
3179.156 107.383 51.828
3202.193 107.423 51.206
3225.398 107.456 50.550
3248.771 107.483 49.850
3272.312 107.498 49.087
3296.025 107.496 48.258
3319.909 107.469 47.377
3343.967 107.411 46.471
3368.198 107.317 45.583
3392.606 107.183 44.758
3417.190 107.003 44.050
3441.952 106.775 43.533
3466.894 106.495 43.299
3492.017 106.163 43.461
3517.321 105.786 44.144
3542.809 105.365 45.445
3568.482 104.898 47.546
3594.341 104.395 50.837
3620.387 103.915 55.775
3646.622 103.596 62.539
3673.046 103.615 70.705
3699.663 104.089 79.215
3726.472 104.979 86.776
3753.476 106.120 92.394
3780.675 107.320 95.741
3808.071 108.437 97.125
3835.666 109.399 97.298
3863.461 110.221 97.189
3891.457 110.996 97.504
3919.656 111.853 98.353
3948.060 112.879 99.168
3976.669 114.045 99.084
4005.486 115.250 97.563
4034.511 116.396 94.594
4063.747 117.431 90.497
4093.194 118.341 85.679
4122.855 119.132 80.442
4152.731 119.808 74.968
4182.824 120.376 69.419
4213.134 120.835 63.851
4243.664 121.182 58.267
4274.416 121.437 52.612
4305.390 121.628 46.799
4336.588 121.768 40.681
4368.013 121.867 34.043
4399.666 121.940 26.796
4431.547 121.991 18.963
4463.660 122.016 10.621
4496.005 122.012 1.886
4528.585 121.979 -7.086
4561.401 121.913 -16.097
4594.455 121.800 -24.916
4627.749 121.610 -33.219
4661.283 121.297 -40.579
4695.061 120.809 -46.564
4729.083 120.125 -51.022
4763.352 119.290 -54.278
4797.869 118.408 -56.781
4832.637 117.578 -58.754
4867.656 116.839 -60.364
4902.929 116.185 -61.868
4938.458 115.590 -63.453
4974.244 115.020 -65.166
5010.289 114.449 -66.944
5046.596 113.870 -68.695
5083.166 113.288 -70.417
5120.000 112.700 -72.185
5157.102 112.085 -74.011
5194.472 111.423 -75.765
5232.113 110.706 -77.269
5270.027 109.946 -78.428
5308.216 109.157 -79.207
5346.682 108.345 -79.576
5385.426 107.513 -79.529
5424.451 106.664 -79.051
5463.759 105.794 -78.075
5503.352 104.905 -76.467
5543.231 104.008 -74.058
5583.399 103.131 -70.721
5623.859 102.315 -66.395
5664.612 101.607 -61.088
5705.660 101.068 -54.932
5747.006 100.765 -48.247
5788.651 100.741 -41.568
5830.598 100.988 -35.593
5872.849 101.430 -30.938
5915.406 101.956 -27.894
5958.271 102.462 -26.363
6001.447 102.885 -25.991
6044.937 103.208 -26.383
6088.740 103.428 -27.219
6132.862 103.549 -28.268
6177.303 103.585 -29.362
6222.066 103.554 -30.365
6267.154 103.475 -31.212
6312.568 103.361 -31.884
6358.312 103.223 -32.397
6404.387 103.068 -32.803
6450.796 102.892 -33.120
6497.541 102.697 -33.319
6544.625 102.490 -33.347
6592.050 102.278 -33.180
6639.818 102.071 -32.876
6687.934 101.873 -32.483
6736.397 101.679 -32.029
6785.211 101.488 -31.533
6834.380 101.299 -30.997
6883.905 101.111 -30.446
6933.789 100.916 -29.900
6984.034 100.705 -29.315
7034.643 100.476 -28.589
7085.619 100.241 -27.634
7136.964 100.018 -26.452
7188.681 99.811 -25.110
7240.773 99.619 -23.647
7293.243 99.447 -22.057
7346.093 99.294 -20.321
7399.326 99.164 -18.455
7452.944 99.069 -16.475
7506.951 99.015 -14.409
7561.350 99.011 -12.327
7616.143 99.062 -10.344
7671.332 99.157 -8.559
7726.922 99.283 -6.990
7782.915 99.436 -5.639
7839.312 99.614 -4.554
7896.120 99.815 -3.833
7953.338 100.020 -3.588
8010.971 100.195 -3.878
8069.022 100.306 -4.615
8127.493 100.332 -5.563
8186.389 100.270 -6.432
8245.711 100.133 -6.972
8305.462 99.949 -7.037
8365.647 99.738 -6.566
8426.268 99.523 -5.497
8487.328 99.343 -3.738
8548.831 99.260 -1.308
8610.779 99.342 1.496
8673.177 99.623 4.029
8736.026 100.048 5.609
8799.331 100.517 5.863
8863.095 100.938 4.893
8927.320 101.262 3.099
8992.011 101.479 0.885
9057.171 101.586 -1.461
9122.803 101.608 -3.768
9188.910 101.580 -5.981
9255.497 101.515 -8.215
9322.566 101.407 -10.627
9390.121 101.222 -13.244
9458.166 100.926 -15.879
9526.704 100.511 -18.215
9595.738 99.991 -19.959
9665.273 99.402 -20.932
9735.312 98.783 -21.068
9805.857 98.164 -20.435
9876.915 97.564 -19.153
9948.487 96.986 -17.258
10020.578 96.433 -14.632
10093.191 95.945 -11.148
10166.331 95.585 -6.903
10240.000 95.409 -2.267
10314.203 95.430 2.266
10388.944 95.613 6.218
10464.227 95.904 9.286
10540.055 96.240 11.375
10616.433 96.567 12.553
10693.363 96.837 13.002
10770.853 97.016 13.026
10848.902 97.103 12.993
10927.518 97.123 13.218
11006.703 97.124 13.871
11086.462 97.157 14.890
11166.799 97.250 16.000
11247.719 97.404 16.925
11329.224 97.605 17.498
11411.320 97.819 17.633
11494.012 98.017 17.331
11577.302 98.181 16.676
11661.195 98.305 15.771
11745.697 98.387 14.691
11830.812 98.423 13.471
11916.543 98.406 12.144
12002.895 98.336 10.783
12089.873 98.208 9.468
12177.480 98.021 8.294
12265.724 97.783 7.398
12354.606 97.513 6.868
12444.133 97.226 6.669
12534.309 96.913 6.803
12625.137 96.578 7.454
12716.624 96.257 8.784
12808.773 96.008 10.660
12901.592 95.864 12.705
12995.082 95.805 14.550
13089.250 95.776 16.063
13184.100 95.737 17.423
13279.637 95.685 18.973
13375.867 95.660 20.970
13472.794 95.723 23.376
13570.423 95.920 25.866
13668.760 96.267 27.975
13767.810 96.736 29.238
13867.577 97.267 29.301
13968.067 97.773 28.020
14069.285 98.170 25.533
14171.237 98.408 22.239
14273.928 98.471 18.658
14377.362 98.384 15.275
14481.547 98.180 12.335
14586.486 97.883 9.862
14692.186 97.517 7.893
14798.651 97.098 6.535
14905.889 96.644 5.887
15013.902 96.186 5.975
15122.700 95.752 6.828
15232.285 95.391 8.432
15342.664 95.168 10.468
15453.844 95.095 12.378
15565.829 95.105 13.800
15678.625 95.115 14.867
15792.239 95.129 16.004
15906.676 95.213 17.325
16021.942 95.405 18.507
16138.044 95.688 19.214
16254.986 96.031 19.289
16372.777 96.407 18.688
16491.422 96.812 17.396
16610.924 97.252 15.272
16731.295 97.699 12.040
16852.535 98.104 7.528
16974.656 98.389 1.672
17097.662 98.483 -5.365
17221.559 98.346 -13.198
17346.354 97.933 -21.358
17472.053 97.218 -29.147
17598.662 96.215 -35.732
17726.189 95.002 -40.512
17854.641 93.688 -43.485
17984.021 92.363 -44.994
18114.342 91.090 -45.290
18245.605 89.890 -44.580
18377.820 88.774 -43.094
18510.994 87.762 -41.063
18645.133 86.860 -38.797
18780.242 86.056 -36.580
18916.332 85.319 -34.617
19053.408 84.598 -32.902
19191.477 83.861 -31.214
19330.547 83.119 -29.474
19470.623 82.403 -27.977
19611.715 81.696 -27.141
19753.830 80.906 -27.006
19896.975 79.935 -27.093
