Freq(Hz) SPL(dB) Phase(degrees)
20.145 82.891 146.854
20.291 82.952 146.695
20.438 83.014 146.431
20.586 83.103 146.008
20.735 83.245 145.411
20.885 83.385 144.791
21.037 83.506 144.202
21.189 83.620 143.611
21.343 83.727 143.021
21.497 83.827 142.432
21.653 83.924 141.831
21.810 84.020 141.213
21.968 84.112 140.592
22.127 84.200 139.972
22.288 84.284 139.355
22.449 84.365 138.744
22.612 84.442 138.139
22.776 84.516 137.541
22.941 84.588 136.949
23.107 84.657 136.367
23.274 84.724 135.794
23.443 84.788 135.232
23.613 84.851 134.680
23.784 84.911 134.140
23.956 84.970 133.611
24.130 85.027 133.094
24.305 85.082 132.591
24.481 85.136 132.101
24.658 85.189 131.626
24.837 85.241 131.166
25.017 85.292 130.722
25.198 85.343 130.295
25.381 85.394 129.883
25.565 85.445 129.489
25.750 85.496 129.110
25.937 85.549 128.747
26.125 85.602 128.396
26.314 85.657 128.058
26.505 85.714 127.729
26.697 85.773 127.409
26.890 85.833 127.092
27.085 85.896 126.779
27.281 85.959 126.466
27.479 86.025 126.152
27.678 86.092 125.834
27.879 86.159 125.514
28.081 86.227 125.190
28.284 86.296 124.863
28.489 86.365 124.535
28.696 86.433 124.209
28.904 86.502 123.885
29.113 86.571 123.567
29.324 86.641 123.256
29.537 86.711 122.955
29.751 86.783 122.664
29.966 86.858 122.382
30.183 86.935 122.105
30.402 87.016 121.831
30.622 87.101 121.555
30.844 87.191 121.268
31.068 87.284 120.965
31.293 87.381 120.635
31.520 87.481 120.274
31.748 87.584 119.874
31.978 87.686 119.433
32.210 87.788 118.948
32.443 87.887 118.420
32.678 87.982 117.856
32.915 88.072 117.258
33.154 88.155 116.639
33.394 88.232 116.007
33.636 88.302 115.371
33.880 88.365 114.744
34.125 88.422 114.134
34.372 88.474 113.548
34.621 88.522 112.992
34.872 88.568 112.468
35.125 88.613 111.976
35.380 88.657 111.512
35.636 88.704 111.073
35.894 88.751 110.652
36.154 88.801 110.242
36.416 88.854 109.835
36.680 88.908 109.424
36.946 88.964 109.004
37.214 89.020 108.569
37.483 89.076 108.119
37.755 89.131 107.653
38.029 89.184 107.171
38.304 89.234 106.678
38.582 89.281 106.177
38.861 89.325 105.672
39.143 89.366 105.168
39.427 89.404 104.668
39.712 89.440 104.175
40.000 89.474 103.689
40.290 89.508 103.209
40.582 89.541 102.733
40.876 89.575 102.257
41.172 89.610 101.774
41.470 89.645 101.280
41.771 89.682 100.769
42.074 89.718 100.232
42.379 89.755 99.664
42.686 89.791 99.056
42.995 89.825 98.401
43.306 89.855 97.692
43.620 89.879 96.925
43.936 89.893 96.098
44.255 89.892 95.219
44.575 89.873 94.307
44.898 89.830 93.396
45.224 89.761 92.538
45.552 89.663 91.802
45.882 89.540 91.272
46.214 89.399 91.032
46.549 89.255 91.154
46.886 89.127 91.672
47.226 89.042 92.557
47.568 89.021 93.707
47.913 89.079 94.957
48.260 89.218 96.117
48.610 89.423 97.012
48.962 89.672 97.525
49.317 89.938 97.614
49.674 90.198 97.309
50.034 90.436 96.688
50.397 90.644 95.853
50.762 90.818 94.902
51.130 90.962 93.921
51.500 91.081 92.966
51.874 91.182 92.071
52.249 91.270 91.249
52.628 91.350 90.498
53.009 91.425 89.811
53.394 91.497 89.177
53.781 91.567 88.588
54.170 91.636 88.038
54.563 91.703 87.521
54.958 91.770 87.033
55.356 91.836 86.569
55.758 91.901 86.125
56.162 91.966 85.697
56.569 92.029 85.281
56.978 92.091 84.874
57.391 92.152 84.475
57.807 92.210 84.085
58.226 92.267 83.701
58.648 92.322 83.326
59.073 92.375 82.957
59.501 92.426 82.595
59.932 92.476 82.240
60.367 92.524 81.890
60.804 92.570 81.546
61.245 92.616 81.205
61.688 92.660 80.869
62.135 92.702 80.536
62.586 92.744 80.208
63.039 92.785 79.883
63.496 92.825 79.562
63.956 92.864 79.244
64.420 92.903 78.928
64.886 92.941 78.613
65.357 92.978 78.298
65.830 93.014 77.986
66.307 93.050 77.676
66.788 93.084 77.370
67.272 93.117 77.070
67.759 93.150 76.777
68.250 93.182 76.493
68.745 93.214 76.218
69.243 93.247 75.952
69.745 93.280 75.694
70.250 93.314 75.442
70.759 93.349 75.193
71.272 93.385 74.943
71.788 93.421 74.692
72.309 93.458 74.439
72.833 93.496 74.186
73.360 93.534 73.934
73.892 93.572 73.682
74.427 93.611 73.430
74.967 93.651 73.176
75.510 93.692 72.918
76.057 93.734 72.656
76.608 93.776 72.390
77.163 93.818 72.118
77.723 93.861 71.839
78.286 93.904 71.551
78.853 93.946 71.255
79.424 93.987 70.953
80.000 94.027 70.646
80.580 94.065 70.337
81.164 94.100 70.026
81.752 94.133 69.718
82.344 94.162 69.424
82.941 94.189 69.156
83.542 94.215 68.926
84.147 94.243 68.731
84.757 94.276 68.559
85.371 94.314 68.393
85.990 94.357 68.218
86.613 94.403 68.024
87.241 94.451 67.806
87.873 94.501 67.564
88.510 94.550 67.297
89.151 94.597 67.006
89.797 94.643 66.696
90.448 94.686 66.372
91.103 94.727 66.036
91.763 94.764 65.688
92.428 94.796 65.338
93.098 94.822 65.005
93.773 94.844 64.714
94.452 94.868 64.479
95.137 94.897 64.285
95.826 94.934 64.101
96.520 94.979 63.892
97.220 95.026 63.640
97.924 95.072 63.349
98.634 95.114 63.036
99.349 95.152 62.716
100.069 95.187 62.403
100.794 95.220 62.106
101.524 95.253 61.823
102.260 95.289 61.542
103.001 95.325 61.245
103.747 95.361 60.922
104.499 95.391 60.582
105.256 95.417 60.247
106.019 95.438 59.938
106.787 95.459 59.662
107.561 95.482 59.410
108.340 95.509 59.166
109.126 95.538 58.917
109.916 95.569 58.653
110.713 95.601 58.376
111.515 95.631 58.089
112.323 95.660 57.798
113.137 95.688 57.505
113.957 95.714 57.216
114.783 95.740 56.930
115.614 95.765 56.649
116.452 95.790 56.367
117.296 95.812 56.089
118.146 95.832 55.821
119.002 95.850 55.573
119.865 95.868 55.357
120.733 95.888 55.176
121.608 95.916 55.016
122.489 95.953 54.834
123.377 95.997 54.579
124.271 96.038 54.234
125.171 96.068 53.830
126.078 96.088 53.420
126.992 96.100 53.030
127.912 96.106 52.665
128.839 96.107 52.330
129.773 96.105 52.048
130.713 96.104 51.832
131.660 96.111 51.663
132.615 96.128 51.500
133.575 96.153 51.304
134.543 96.180 51.053
135.518 96.205 50.750
136.500 96.223 50.416
137.490 96.233 50.081
138.486 96.238 49.771
139.489 96.240 49.500
140.500 96.242 49.270
141.518 96.249 49.064
142.544 96.261 48.864
143.577 96.276 48.650
144.617 96.292 48.410
145.665 96.306 48.143
146.721 96.315 47.861
147.784 96.319 47.582
148.855 96.317 47.328
149.933 96.312 47.114
151.020 96.310 46.936
152.114 96.314 46.770
153.217 96.323 46.579
154.327 96.332 46.349
155.445 96.338 46.096
156.572 96.342 45.841
157.706 96.345 45.588
158.849 96.349 45.338
160.000 96.356 45.077
161.159 96.361 44.780
162.327 96.359 44.446
163.504 96.342 44.135
164.688 96.317 43.924
165.882 96.295 43.826
167.084 96.287 43.778
168.295 96.290 43.711
169.514 96.296 43.595
170.742 96.302 43.433
171.980 96.302 43.236
173.226 96.294 43.032
174.481 96.279 42.862
175.746 96.263 42.752
177.019 96.253 42.676
178.302 96.251 42.579
179.594 96.248 42.441
180.895 96.242 42.287
182.206 96.233 42.141
183.527 96.223 42.011
184.856 96.213 41.891
186.196 96.203 41.778
187.545 96.196 41.662
188.904 96.187 41.523
190.273 96.173 41.368
191.652 96.152 41.226
193.041 96.126 41.112
194.440 96.095 41.040
195.849 96.063 41.044
197.268 96.043 41.101
198.697 96.036 41.122
200.137 96.031 41.069
201.587 96.019 40.990
203.048 96.003 40.926
204.520 95.985 40.880
206.002 95.965 40.869
207.494 95.945 40.908
208.998 95.930 40.986
210.512 95.921 41.075
212.038 95.913 41.161
213.574 95.906 41.255
215.122 95.901 41.354
216.681 95.897 41.443
218.251 95.891 41.526
219.833 95.884 41.635
221.426 95.880 41.774
223.030 95.882 41.915
224.646 95.888 42.040
226.274 95.897 42.160
227.914 95.912 42.263
229.565 95.930 42.323
231.229 95.947 42.345
232.905 95.961 42.352
234.592 95.977 42.334
236.292 95.990 42.260
238.004 95.994 42.152
239.729 95.990 42.076
241.466 95.985 42.046
243.216 95.984 42.025
244.979 95.981 41.996
246.754 95.976 41.991
248.542 95.973 42.008
250.343 95.971 41.994
252.157 95.963 41.943
253.984 95.949 41.881
255.825 95.931 41.789
257.678 95.906 41.655
259.546 95.874 41.480
261.426 95.833 41.270
263.321 95.778 41.041
265.229 95.709 40.830
267.151 95.626 40.667
269.087 95.529 40.557
271.037 95.413 40.536
273.001 95.273 40.675
274.979 95.116 41.072
276.972 94.955 41.805
278.979 94.812 42.885
281.000 94.712 44.243
283.037 94.666 45.741
285.088 94.679 47.220
287.153 94.740 48.533
289.234 94.830 49.583
291.330 94.925 50.371
293.441 95.016 50.982
295.568 95.102 51.452
297.710 95.178 51.811
299.867 95.243 52.124
302.040 95.302 52.415
304.228 95.357 52.681
306.433 95.408 52.935
308.654 95.455 53.179
310.890 95.498 53.403
313.143 95.534 53.621
315.412 95.565 53.873
317.698 95.604 54.138
320.000 95.649 54.331
322.319 95.685 54.459
324.655 95.710 54.625
327.007 95.739 54.851
329.377 95.771 55.084
331.764 95.804 55.310
334.168 95.834 55.520
336.589 95.858 55.726
339.028 95.878 55.965
341.485 95.899 56.237
343.959 95.924 56.514
346.452 95.952 56.770
348.962 95.978 57.012
351.491 96.003 57.265
354.038 96.028 57.515
356.604 96.052 57.762
359.188 96.075 58.020
361.791 96.097 58.294
364.412 96.121 58.584
367.053 96.147 58.880
369.713 96.175 59.178
372.392 96.207 59.470
375.090 96.240 59.720
377.809 96.266 59.943
380.546 96.285 60.213
383.304 96.309 60.533
386.081 96.340 60.836
388.879 96.369 61.110
391.697 96.394 61.385
394.536 96.414 61.689
397.395 96.438 62.035
400.274 96.474 62.358
403.175 96.518 62.583
406.096 96.556 62.717
409.039 96.575 62.855
412.003 96.580 63.169
414.989 96.598 63.617
417.996 96.623 64.049
421.025 96.648 64.481
424.076 96.680 64.921
427.149 96.717 65.323
430.244 96.756 65.694
433.362 96.795 66.019
436.502 96.828 66.310
439.665 96.856 66.610
442.851 96.882 66.943
446.060 96.914 67.302
449.293 96.950 67.668
452.548 96.988 68.024
455.828 97.024 68.373
459.131 97.059 68.733
462.458 97.096 69.097
465.809 97.135 69.444
469.184 97.172 69.778
472.584 97.207 70.116
476.009 97.241 70.458
479.458 97.274 70.819
482.933 97.311 71.211
486.432 97.356 71.594
489.957 97.401 71.933
493.507 97.441 72.265
497.084 97.478 72.631
500.686 97.519 73.024
504.314 97.567 73.405
507.968 97.613 73.757
511.649 97.655 74.113
515.357 97.695 74.490
519.091 97.736 74.879
522.853 97.782 75.270
526.642 97.834 75.639
530.458 97.885 76.000
534.302 97.933 76.394
538.174 97.979 76.803
542.074 98.015 77.177
546.002 98.039 77.532
549.958 98.070 77.866
553.943 98.117 78.115
557.958 98.173 78.410
562.001 98.246 78.835
566.073 98.323 79.272
570.175 98.387 79.673
574.307 98.439 80.058
578.469 98.491 80.434
582.660 98.548 80.794
586.883 98.608 81.161
591.135 98.669 81.524
595.419 98.722 81.850
599.734 98.755 82.200
604.080 98.788 82.645
608.457 98.838 83.100
612.866 98.896 83.490
617.307 98.949 83.857
621.780 98.997 84.242
626.286 99.044 84.661
630.824 99.091 85.123
635.396 99.146 85.654
640.000 99.213 86.147
644.638 99.276 86.582
649.309 99.335 87.039
654.014 99.402 87.524
658.753 99.479 87.976
663.527 99.558 88.405
668.335 99.636 88.835
673.178 99.709 89.266
678.056 99.779 89.696
682.970 99.849 90.126
687.919 99.921 90.540
692.904 99.992 90.937
697.925 100.064 91.365
702.982 100.143 91.837
708.076 100.228 92.311
713.208 100.314 92.785
718.376 100.404 93.241
723.581 100.495 93.679
728.825 100.588 94.118
734.106 100.683 94.551
739.426 100.776 94.973
744.784 100.870 95.383
750.181 100.970 95.775
755.617 101.074 96.139
761.093 101.178 96.492
766.608 101.279 96.848
772.163 101.381 97.201
777.758 101.483 97.549
783.394 101.587 97.924
789.071 101.699 98.304
794.789 101.813 98.635
800.548 101.928 98.918
806.349 102.045 99.152
812.193 102.156 99.361
818.078 102.265 99.596
824.006 102.379 99.844
829.977 102.500 100.110
835.992 102.628 100.352
842.050 102.758 100.515
848.151 102.879 100.612
854.297 102.994 100.701
860.488 103.106 100.818
866.724 103.224 100.960
873.004 103.348 101.066
879.330 103.473 101.131
885.702 103.600 101.177
892.120 103.728 101.182
898.585 103.856 101.125
905.097 103.977 101.005
911.655 104.090 100.872
918.262 104.198 100.770
924.916 104.308 100.685
931.618 104.420 100.587
938.369 104.537 100.459
945.169 104.655 100.268
952.018 104.766 100.008
958.917 104.865 99.785
965.865 104.966 99.595
972.864 105.065 99.356
979.914 105.160 99.080
987.015 105.251 98.763
994.167 105.332 98.412
1,001.371 105.407 98.083
1,008.628 105.485 97.797
1,015.937 105.571 97.491
1,023.299 105.653 97.113
1,030.714 105.725 96.684
1,038.183 105.785 96.242
1,045.706 105.839 95.816
1,053.283 105.890 95.381
1,060.916 105.932 94.908
1,068.604 105.958 94.436
1,076.347 105.970 94.020
1,084.147 105.973 93.673
1,092.003 105.968 93.415
1,099.916 105.962 93.282
1,107.887 105.962 93.250
1,115.915 105.975 93.266
1,124.001 106.000 93.303
1,132.146 106.037 93.312
1,140.350 106.077 93.264
1,148.614 106.115 93.174
1,156.937 106.150 93.067
1,165.321 106.184 92.957
1,173.765 106.215 92.862
1,182.271 106.247 92.799
1,190.838 106.284 92.748
1,199.467 106.328 92.670
1,208.159 106.375 92.548
1,216.914 106.426 92.372
1,225.732 106.477 92.132
1,234.614 106.525 91.846
1,243.561 106.570 91.521
1,252.572 106.615 91.123
1,261.649 106.656 90.621
1,270.791 106.684 90.024
1,280.000 106.695 89.350
1,289.275 106.690 88.577
1,298.618 106.656 87.671
1,308.028 106.567 86.677
1,317.507 106.401 85.805
1,327.054 106.164 85.439
1,336.670 105.912 85.880
1,346.357 105.728 87.002
1,356.113 105.650 88.317
1,365.940 105.656 89.424
1,375.838 105.702 90.205
1,385.808 105.755 90.713
1,395.850 105.800 91.048
1,405.965 105.835 91.283
1,416.153 105.863 91.469
1,426.415 105.890 91.630
1,436.751 105.920 91.744
1,447.163 105.951 91.778
1,457.649 105.977 91.716
1,468.212 105.993 91.557
1,478.851 105.991 91.318
1,489.568 105.968 91.055
1,500.362 105.923 90.818
1,511.234 105.861 90.649
1,522.185 105.790 90.570
1,533.215 105.712 90.562
1,544.326 105.626 90.620
1,555.517 105.535 90.771
1,566.789 105.445 91.021
1,578.142 105.361 91.328
1,589.578 105.280 91.643
1,601.097 105.196 91.986
1,612.699 105.110 92.387
1,624.385 105.027 92.829
1,636.156 104.943 93.290
1,648.012 104.855 93.793
1,659.955 104.768 94.362
1,671.983 104.686 94.963
1,684.099 104.605 95.582
1,696.303 104.521 96.239
1,708.595 104.437 96.954
1,720.976 104.356 97.723
1,733.447 104.278 98.534
1,746.008 104.202 99.382
1,758.661 104.129 100.273
1,771.405 104.061 101.189
1,784.241 103.996 102.128
1,797.170 103.931 103.101
1,810.193 103.869 104.119
1,823.311 103.812 105.190
1,836.523 103.762 106.284
1,849.831 103.717 107.399
1,863.236 103.682 108.537
1,876.738 103.658 109.667
1,890.338 103.645 110.723
1,904.036 103.634 111.619
1,917.833 103.594 112.287
1,931.730 103.473 112.939
1,945.729 103.268 114.271
1,959.828 103.112 116.608
1,974.030 103.104 119.184
1,988.334 103.186 121.336
2,002.743 103.284 123.073
2,017.255 103.370 124.613
2,031.873 103.449 126.071
2,046.597 103.524 127.476
2,061.428 103.598 128.862
2,076.365 103.673 130.250
2,091.412 103.754 131.660
2,106.567 103.845 133.081
2,121.832 103.947 134.481
2,137.208 104.063 135.833
2,152.695 104.192 137.098
2,168.294 104.331 138.248
2,184.007 104.472 139.242
2,199.833 104.602 140.066
2,215.774 104.710 140.777
2,231.830 104.794 141.451
2,248.003 104.854 142.151
2,264.293 104.895 142.938
2,280.701 104.924 143.843
2,297.228 104.948 144.871
2,313.874 104.971 146.029
2,330.642 104.995 147.322
2,347.530 105.028 148.753
2,364.542 105.075 150.313
2,381.676 105.143 151.995
2,398.935 105.238 153.777
2,416.318 105.365 155.571
2,433.828 105.517 157.325
2,451.464 105.695 159.058
2,469.229 105.910 160.736
2,487.122 106.165 162.233
2,505.145 106.445 163.406
2,523.298 106.724 164.192
2,541.583 106.974 164.659
2,560.000 107.186 164.957
2,578.551 107.363 165.171
2,597.236 107.494 165.306
2,616.057 107.559 165.569
2,635.014 107.582 166.352
2,654.108 107.637 167.757
2,673.341 107.784 169.462
2,692.713 108.023 171.029
2,712.226 108.325 172.194
2,731.879 108.651 172.811
2,751.676 108.955 172.866
2,771.615 109.196 172.497
2,791.700 109.356 171.991
2,811.930 109.450 171.638
2,832.306 109.509 171.571
2,852.830 109.557 171.794
2,873.503 109.612 172.261
2,894.325 109.687 172.880
2,915.299 109.780 173.559
2,936.424 109.887 174.239
2,957.703 110.005 174.898
2,979.136 110.131 175.534
3,000.724 110.266 176.146
3,022.468 110.410 176.704
3,044.370 110.559 177.199
3,066.431 110.708 177.616
3,088.652 110.854 177.951
3,111.033 110.995 178.213
3,133.577 111.130 178.418
3,156.284 111.260 178.578
3,179.156 111.385 178.710
3,202.193 111.503 178.812
3,225.398 111.615 178.860
3,248.771 111.719 178.833
3,272.312 111.812 178.727
3,296.025 111.888 178.544
3,319.909 111.944 178.292
3,343.967 111.977 177.980
3,368.198 111.980 177.649
3,392.606 111.951 177.342
3,417.190 111.889 177.087
3,441.952 111.795 176.900
3,466.894 111.667 176.811
3,492.017 111.499 176.850
3,517.321 111.287 177.060
3,542.809 111.028 177.514
3,568.482 110.720 178.304
3,594.341 110.359 179.540
3,620.387 109.942 -178.618
3,646.622 109.473 -175.951
3,673.046 108.973 -172.219
3,699.663 108.477 -167.154
3,726.472 108.053 -160.507
3,753.476 107.810 -152.205
3,780.675 107.886 -142.525
3,808.071 108.400 -132.216
3,835.666 109.368 -122.347
3,863.461 110.699 -113.878
3,891.457 112.255 -107.378
3,919.656 113.921 -102.971
3,948.060 115.641 -100.534
3,976.669 117.369 -100.073
4,005.486 118.987 -101.941
4,034.511 120.314 -106.019
4,063.747 121.265 -111.299
4,093.194 121.863 -117.159
4,122.855 122.174 -123.833
4,152.731 122.306 -131.572
4,182.824 122.357 -140.025
4,213.134 122.368 -148.560
4,243.664 122.354 -156.669
4,274.416 122.328 -164.041
4,305.390 122.298 -170.523
4,336.588 122.266 -176.111
4,368.013 122.225 179.096
4,399.666 122.177 174.971
4,431.547 122.128 171.408
4,463.660 122.078 168.326
4,496.005 122.023 165.615
4,528.585 121.963 163.186
4,561.401 121.891 160.979
4,594.455 121.799 158.949
4,627.749 121.668 157.133
4,661.283 121.499 155.642
4,695.061 121.313 154.492
4,729.083 121.131 153.523
4,763.352 120.949 152.412
4,797.869 120.731 151.036
4,832.637 120.444 149.575
4,867.656 120.096 148.237
4,902.929 119.722 147.120
4,938.458 119.345 146.196
4,974.244 118.965 145.388
5,010.289 118.573 144.675
5,046.596 118.160 144.075
5,083.166 117.721 143.634
5,120.000 117.254 143.444
5,157.102 116.766 143.612
5,194.472 116.272 144.181
5,232.113 115.780 145.165
5,270.027 115.305 146.621
5,308.216 114.874 148.551
5,346.682 114.510 150.820
5,385.426 114.225 153.284
5,424.451 114.025 155.830
5,463.759 113.917 158.305
5,503.352 113.892 160.487
5,543.231 113.924 162.148
5,583.399 113.969 163.232
5,623.859 113.994 163.936
5,664.612 114.005 164.511
5,705.660 114.038 164.923
5,747.006 114.092 164.848
5,788.651 114.119 164.079
5,830.598 114.059 162.767
5,872.849 113.886 161.263
5,915.406 113.607 159.917
5,958.271 113.248 158.931
6,001.447 112.842 158.345
6,044.937 112.407 158.167
6,088.740 111.955 158.368
6,132.862 111.497 158.907
6,177.303 111.045 159.725
6,222.066 110.603 160.766
6,267.154 110.176 161.990
6,312.568 109.763 163.380
6,358.312 109.366 164.912
6,404.387 108.983 166.516
6,450.796 108.608 168.163
6,497.541 108.243 169.864
6,544.625 107.889 171.621
6,592.050 107.535 173.416
6,639.818 107.175 175.229
6,687.934 106.802 177.096
6,736.397 106.415 179.107
6,785.211 106.021 -178.654
6,834.380 105.631 -176.139
6,883.905 105.261 -173.378
6,933.789 104.918 -170.453
6,984.034 104.601 -167.436
7,034.643 104.314 -164.365
7,085.619 104.059 -161.255
7,136.964 103.839 -158.139
7,188.681 103.647 -155.076
7,240.773 103.473 -152.113
7,293.243 103.309 -149.261
7,346.093 103.149 -146.515
7,399.326 102.985 -143.856
7,452.944 102.818 -141.251
7,506.951 102.646 -138.669
7,561.350 102.462 -136.066
7,616.143 102.266 -133.393
7,671.332 102.063 -130.585
7,726.922 101.861 -127.589
7,782.915 101.676 -124.379
7,839.312 101.535 -120.997
7,896.120 101.457 -117.591
7,953.338 101.439 -114.372
8,010.971 101.457 -111.484
8,069.022 101.489 -108.972
8,127.493 101.522 -106.849
8,186.389 101.544 -105.132
8,245.711 101.543 -103.862
8,305.462 101.495 -103.114
8,365.647 101.347 -102.878
8,426.268 101.034 -102.846
8,487.328 100.524 -102.260
8,548.831 99.870 -100.273
8,610.779 99.208 -96.575
8,673.177 98.690 -91.690
8,736.026 98.368 -86.547
8,799.331 98.170 -81.600
8,863.095 98.050 -76.804
8,927.320 98.015 -72.163
8,992.011 98.060 -67.820
9,057.171 98.169 -63.921
9,122.803 98.318 -60.576
9,188.910 98.479 -57.859
9,255.497 98.622 -55.779
9,322.566 98.725 -54.249
9,390.121 98.782 -53.160
9,458.166 98.786 -52.486
9,526.704 98.713 -52.213
9,595.738 98.545 -52.252
9,665.273 98.273 -52.495
9,735.312 97.870 -52.828
9,805.857 97.323 -52.980
9,876.915 96.653 -52.601
9,948.487 95.884 -51.530
10,020.578 95.025 -49.813
10,093.191 94.072 -47.376
10,166.331 93.030 -43.981
10,240.000 91.937 -39.457
10,314.203 90.824 -33.764
10,388.944 89.698 -26.877
10,464.227 88.558 -18.618
10,540.055 87.411 -8.494
10,616.433 86.337 4.179
10,693.363 85.568 19.580
10,770.853 85.427 36.687
10,848.902 86.058 53.409
10,927.518 87.236 67.751
11,006.703 88.641 78.970
11,086.462 90.085 87.308
11,166.799 91.478 93.200
11,247.719 92.764 97.044
11,329.224 93.894 99.245
11,411.320 94.836 100.281
11,494.012 95.587 100.678
11,577.302 96.177 100.918
11,661.195 96.660 101.323
11,745.697 97.101 101.915
11,830.812 97.536 102.356
11,916.543 97.942 102.211
12,002.895 98.260 101.316
12,089.873 98.436 99.885
12,177.480 98.439 98.275
12,265.724 98.261 96.906
12,354.606 97.934 96.200
12,444.133 97.504 96.374
12,534.309 97.018 97.430
12,625.137 96.518 99.262
12,716.624 96.025 101.685
12,808.773 95.548 104.540
12,901.592 95.087 107.762
12,995.082 94.628 111.328
13,089.250 94.155 115.230
13,184.100 93.658 119.532
13,279.637 93.146 124.413
13,375.867 92.654 130.034
13,472.794 92.220 136.478
13,570.423 91.912 143.721
13,668.760 91.777 151.464
13,767.810 91.846 159.181
13,867.577 92.104 166.306
13,968.067 92.480 172.352
14,069.285 92.885 177.143
14,171.237 93.234 -179.195
14,273.928 93.461 -176.284
14,377.362 93.554 -173.581
14,481.547 93.536 -170.656
14,586.486 93.443 -167.296
14,692.186 93.336 -163.349
14,798.651 93.271 -158.801
14,905.889 93.271 -153.853
15,013.902 93.358 -148.720
15,122.700 93.552 -143.685
15,232.285 93.845 -139.155
15,342.664 94.185 -135.428
15,453.844 94.515 -132.530
15,565.829 94.805 -130.271
15,678.625 95.037 -128.476
15,792.239 95.196 -126.993
15,906.676 95.300 -125.642
16,021.942 95.387 -124.476
16,138.044 95.461 -123.826
16,254.986 95.475 -123.891
16,372.777 95.369 -124.572
16,491.422 95.088 -125.565
16,610.924 94.608 -126.381
16,731.295 93.942 -126.466
16,852.535 93.146 -125.439
16,974.656 92.305 -123.216
17,097.662 91.503 -120.021
17,221.559 90.779 -116.371
17,346.354 90.124 -112.706
17,472.053 89.502 -109.225
17,598.662 88.860 -106.055
17,726.189 88.144 -103.180
17,854.641 87.308 -100.315
17,984.021 86.331 -96.962
18,114.342 85.220 -92.678
18,245.605 84.008 -87.109
18,377.820 82.763 -80.115
18,510.994 81.553 -71.928
18,645.133 80.405 -62.754
18,780.242 79.317 -52.513
18,916.332 78.293 -40.973
19,053.408 77.400 -27.880
19,191.477 76.775 -13.276
19,330.547 76.563 2.085
19,470.623 76.815 16.979
19,611.715 77.450 30.354
19,753.830 78.287 41.475
19,896.975 79.047 49.397
